0, 1 , 177254,380,2269
0, 2 , 268,369,2263
0, 3 , 262,368,2259
0, 4 , 260,369,2248
0, 5 , 259,368,2246
0, 6 , 263,369,2252
0, 7 , 264,368,2248
0, 8 , 260,368,2262
0, 9 , 260,368,2237
0, 10 , 259,368,2232
0, 11 , 260,368,2229
0, 12 , 260,369,2230
0, 13 , 260,369,2236
0, 14 , 264,368,2273
0, 15 , 260,369,2238
0, 16 , 260,369,2238
0, 17 , 259,368,2228
0, 18 , 259,368,2229
0, 19 , 260,368,2229
0, 20 , 264,369,2231
0, 21 , 264,368,2237
0, 22 , 259,368,2230
0, 23 , 259,368,2251
0, 24 , 261,370,2260
0, 25 , 262,369,2243
0, 26 , 261,368,2226
0, 27 , 263,368,2236
0, 28 , 254,369,2227
0, 29 , 260,368,2242
0, 30 , 261,369,2229
0, 31 , 260,369,2229
0, 32 , 259,369,2227
0, 33 , 260,370,2222
0, 34 , 348,386,2228
0, 35 , 261,368,2234
0, 36 , 260,369,2232
0, 37 , 260,368,2232
0, 38 , 259,369,2224
0, 39 , 259,368,2222
0, 40 , 261,367,2230
0, 41 , 265,368,2235
0, 42 , 258,367,2235
0, 43 , 260,368,2239
0, 44 , 260,369,2232
0, 45 , 260,368,2231
0, 46 , 260,368,2234
0, 47 , 263,369,2227
0, 48 , 264,368,2233
0, 49 , 260,368,2234
0, 50 , 259,368,2247
0, 51 , 258,369,2256
0, 52 , 259,369,2243
0, 53 , 260,370,2240
0, 54 , 261,369,2238
0, 55 , 263,369,2241
0, 56 , 260,368,2248
0, 57 , 260,367,2247
0, 58 , 259,369,2236
0, 59 , 259,369,2242
0, 60 , 259,368,2243
0, 61 , 263,369,2237
0, 62 , 264,368,2254
0, 63 , 260,368,2242
0, 64 , 259,369,2238
0, 65 , 259,369,2245
0, 66 , 259,369,2232
0, 67 , 260,369,2243
0, 68 , 264,368,2247
0, 69 , 282,368,2245
0, 70 , 259,367,2254
0, 71 , 260,368,2236
0, 72 , 259,369,2249
0, 73 , 259,369,2249
0, 74 , 261,368,2248
0, 75 , 264,368,2257
0, 76 , 259,368,2278
0, 77 , 260,368,2245
0, 78 , 259,368,2241
0, 79 , 259,368,2245
0, 80 , 259,368,2246
0, 81 , 263,368,2243
0, 82 , 261,368,2243
0, 83 , 260,368,2259
0, 84 , 260,368,2253
0, 85 , 260,368,2245
0, 86 , 259,369,2254
0, 87 , 258,369,2250
0, 88 , 296,369,2248
0, 89 , 259,369,2243
0, 90 , 259,369,2249
0, 91 , 267,369,2243
0, 92 , 258,369,2261
0, 93 , 264,369,2249
0, 94 , 263,368,2262
0, 95 , 259,368,2254
0, 96 , 260,369,2248
0, 97 , 260,368,2241
0, 98 , 260,368,2260
0, 99 , 260,369,2251
1, 2 , 263,368,2292
1, 3 , 259,368,2252
1, 4 , 264,368,2244
1, 5 , 261,368,2242
1, 6 , 259,369,2243
1, 7 , 260,368,2255
1, 8 , 264,368,2247
1, 9 , 253,367,2246
1, 10 , 260,369,2279
1, 11 , 260,368,2238
1, 12 , 260,369,2234
1, 13 , 260,369,2233
1, 14 , 260,368,2236
1, 15 , 263,368,2237
1, 16 , 259,367,2232
1, 17 , 259,369,2229
1, 18 , 260,368,2268
1, 19 , 260,368,2260
1, 20 , 259,369,2249
1, 21 , 260,367,2233
1, 22 , 263,368,2235
1, 23 , 259,368,2226
1, 24 , 260,368,2238
1, 25 , 259,368,2238
1, 26 , 259,368,2229
1, 27 , 260,368,2228
1, 28 , 259,372,2226
1, 29 , 263,369,2235
1, 30 , 263,368,2225
1, 31 , 259,368,2260
1, 32 , 260,368,2234
1, 33 , 260,368,2223
1, 34 , 259,368,2275
1, 35 , 260,369,2219
1, 36 , 264,367,2222
1, 37 , 264,367,2232
1, 38 , 259,368,2236
1, 39 , 259,368,2231
1, 40 , 258,369,2230
1, 41 , 259,369,2240
1, 42 , 259,369,2226
1, 43 , 264,369,2230
1, 44 , 263,368,2239
1, 45 , 259,368,2248
1, 46 , 258,369,2237
1, 47 , 259,368,2229
1, 48 , 259,369,2233
1, 49 , 259,368,2247
1, 50 , 262,369,2244
1, 51 , 260,368,2242
1, 52 , 258,368,2276
1, 53 , 261,369,2241
1, 54 , 261,369,2383
1, 55 , 266,367,2283
1, 56 , 260,369,2322
1, 57 , 261,369,2279
1, 58 , 260,369,2243
1, 59 , 260,373,2245
1, 60 , 262,368,2245
1, 61 , 262,369,2243
1, 62 , 259,368,2277
1, 63 , 260,369,2250
1, 64 , 261,369,2246
1, 65 , 259,368,2239
1, 66 , 260,368,2241
1, 67 , 263,368,2260
1, 68 , 259,367,2244
1, 69 , 260,368,2251
1, 70 , 258,369,2244
1, 71 , 259,369,2245
1, 72 , 259,369,2245
1, 73 , 264,368,2253
1, 74 , 259,368,2244
1, 75 , 259,367,2244
1, 76 , 260,367,2277
1, 77 , 259,368,2247
1, 78 , 259,368,2245
1, 79 , 263,368,2241
1, 80 , 263,367,2243
1, 81 , 260,368,2255
1, 82 , 259,368,2251
1, 83 , 259,368,2261
1, 84 , 260,369,2244
1, 85 , 259,369,2253
1, 86 , 263,368,2247
1, 87 , 259,368,2241
1, 88 , 260,368,2251
1, 89 , 260,368,2255
1, 90 , 260,368,2247
1, 91 , 259,369,2241
1, 92 , 264,369,2256
1, 93 , 264,368,2250
1, 94 , 258,369,2258
1, 95 , 259,368,2274
1, 96 , 260,368,2240
1, 97 , 260,368,2241
1, 98 , 265,368,2249
1, 99 , 264,368,2237
2, 3 , 259,368,2253
2, 4 , 260,368,2256
2, 5 , 258,372,2246
2, 6 , 261,369,2249
2, 7 , 258,369,2251
2, 8 , 263,369,2250
2, 9 , 259,368,2237
2, 10 , 259,368,2239
2, 11 , 260,368,2237
2, 12 , 260,368,2236
2, 13 , 259,369,2240
2, 14 , 260,369,2231
2, 15 , 264,368,2244
2, 16 , 260,369,2241
2, 17 , 259,369,2241
2, 18 , 259,369,2236
2, 19 , 260,369,2230
2, 20 , 260,369,2232
2, 21 , 260,369,2238
2, 22 , 265,368,2231
2, 23 , 264,369,2238
2, 24 , 259,368,2241
2, 25 , 260,368,2233
2, 26 , 260,370,2241
2, 27 , 259,369,2242
2, 28 , 259,369,2240
2, 29 , 264,367,2233
2, 30 , 254,368,2234
2, 31 , 257,368,2229
2, 32 , 258,367,2231
2, 33 , 259,368,2235
2, 34 , 259,368,2226
2, 35 , 260,368,2227
2, 36 , 260,369,2227
2, 37 , 265,369,2227
2, 38 , 259,369,2228
2, 39 , 261,371,2236
2, 40 , 259,367,2232
2, 41 , 259,369,2229
2, 42 , 259,369,2224
2, 43 , 260,373,2231
2, 44 , 264,369,2231
2, 45 , 264,367,2233
2, 46 , 259,368,2238
2, 47 , 259,368,2236
2, 48 , 259,369,2229
2, 49 , 259,368,2227
2, 50 , 259,369,2236
2, 51 , 264,369,2238
2, 52 , 260,367,2244
2, 53 , 259,368,2248
2, 54 , 259,368,2246
2, 55 , 259,369,2248
2, 56 , 260,369,2242
2, 57 , 259,373,2288
2, 58 , 264,368,2244
2, 59 , 261,367,2239
2, 60 , 260,369,2256
2, 61 , 260,368,2240
2, 62 , 259,369,2245
2, 63 , 259,369,2244
2, 64 , 262,369,2255
2, 65 , 282,369,2315
2, 66 , 297,370,2252
2, 67 , 259,368,2301
2, 68 , 259,369,2251
2, 69 , 262,367,2348
2, 70 , 282,368,2250
2, 71 , 258,369,2239
2, 72 , 316,369,2246
2, 73 , 259,367,2254
2, 74 , 264,369,2250
2, 75 , 260,368,2318
2, 76 , 258,368,2251
2, 77 , 283,368,2252
2, 78 , 259,368,2242
2, 79 , 264,369,2244
2, 80 , 264,369,2240
2, 81 , 259,371,2257
2, 82 , 260,368,2245
2, 83 , 260,368,2251
2, 84 , 260,368,2401
2, 85 , 263,367,2250
2, 86 , 259,369,2253
2, 87 , 259,368,2255
2, 88 , 259,369,2250
2, 89 , 259,369,2255
2, 90 , 261,369,2240
2, 91 , 265,367,2253
2, 92 , 260,368,2251
2, 93 , 259,367,2278
2, 94 , 260,369,2254
2, 95 , 259,369,2247
2, 96 , 260,368,2241
2, 97 , 282,369,2302
2, 98 , 260,369,2239
2, 99 , 258,369,2243
3, 4 , 259,369,2252
3, 5 , 259,368,2260
3, 6 , 263,368,2256
3, 7 , 260,369,2250
3, 8 , 259,369,2246
3, 9 , 259,368,2239
3, 10 , 258,369,2228
3, 11 , 259,369,2232
3, 12 , 260,368,2228
3, 13 , 263,367,2232
3, 14 , 260,368,2230
3, 15 , 259,368,2234
3, 16 , 260,369,2267
3, 17 , 260,369,2244
3, 18 , 261,369,2233
3, 19 , 261,368,2238
3, 20 , 263,373,2228
3, 21 , 259,368,2229
3, 22 , 260,368,2238
3, 23 , 259,368,2237
3, 24 , 260,368,2227
3, 25 , 259,368,2225
3, 26 , 263,368,2239
3, 27 , 264,368,2235
3, 28 , 260,368,2222
3, 29 , 259,369,2240
3, 30 , 260,368,2229
3, 31 , 259,368,2227
3, 32 , 259,368,2218
3, 33 , 259,369,2260
3, 34 , 264,369,2231
3, 35 , 260,368,2229
3, 36 , 259,368,2231
3, 37 , 259,369,2241
3, 38 , 260,369,2230
3, 39 , 260,369,2239
3, 40 , 259,369,2223
3, 41 , 264,368,2226
3, 42 , 262,370,2239
3, 43 , 259,368,2228
3, 44 , 259,368,2235
3, 45 , 259,369,2230
3, 46 , 259,369,2240
3, 47 , 259,368,2225
3, 48 , 264,369,2219
3, 49 , 264,370,2235
3, 50 , 260,367,2230
3, 51 , 259,369,2235
3, 52 , 260,369,2230
3, 53 , 259,369,2238
3, 54 , 259,368,2229
3, 55 , 259,368,2229
3, 56 , 263,368,2229
3, 57 , 259,367,2235
3, 58 , 260,369,2237
3, 59 , 259,369,2243
3, 60 , 259,368,2229
3, 61 , 260,368,2231
3, 62 , 261,369,2233
3, 63 , 265,368,2238
3, 64 , 260,368,2231
3, 65 , 260,368,2247
3, 66 , 259,369,2246
3, 67 , 259,368,2234
3, 68 , 259,368,2234
3, 69 , 260,369,2238
3, 70 , 263,368,2234
3, 71 , 259,369,2237
3, 72 , 260,369,2246
3, 73 , 260,369,2248
3, 74 , 259,368,2242
3, 75 , 260,369,2251
3, 76 , 264,369,2245
3, 77 , 263,369,2238
3, 78 , 259,369,2256
3, 79 , 259,368,2242
3, 80 , 260,369,2238
3, 81 , 259,369,2241
3, 82 , 259,369,2240
3, 83 , 263,368,2242
3, 84 , 257,368,2247
3, 85 , 259,368,2276
3, 86 , 259,368,2257
3, 87 , 259,368,2236
3, 88 , 259,369,2241
3, 89 , 263,368,2241
3, 90 , 254,369,2247
3, 91 , 260,368,2238
3, 92 , 258,368,2256
3, 93 , 259,369,2242
3, 94 , 259,369,2256
3, 95 , 260,369,2245
3, 96 , 263,369,2245
3, 97 , 258,369,2241
3, 98 , 260,368,2251
3, 99 , 258,369,2266
4, 5 , 259,369,2265
4, 6 , 259,369,2259
4, 7 , 264,369,2250
4, 8 , 259,368,2255
4, 9 , 259,368,2248
4, 10 , 259,369,2256
4, 11 , 259,368,2300
4, 12 , 261,369,2238
4, 13 , 277,370,2232
4, 14 , 260,371,2227
4, 15 , 260,368,2233
4, 16 , 260,367,2233
4, 17 , 260,368,2230
4, 18 , 258,368,2233
4, 19 , 260,373,2233
4, 20 , 263,369,2234
4, 21 , 263,368,2225
4, 22 , 260,370,2237
4, 23 , 260,368,2237
4, 24 , 259,368,2230
4, 25 , 260,368,2226
4, 26 , 260,368,2222
4, 27 , 263,369,2232
4, 28 , 295,369,2241
4, 29 , 260,368,2233
4, 30 , 260,368,2277
4, 31 , 260,369,2233
4, 32 , 260,368,2234
4, 33 , 263,367,2234
4, 34 , 262,368,2222
4, 35 , 259,368,2224
4, 36 , 260,368,2227
4, 37 , 261,368,2228
4, 38 , 260,368,2226
4, 39 , 260,369,2220
4, 40 , 259,368,2244
4, 41 , 264,369,2237
4, 42 , 259,372,2226
4, 43 , 259,368,2224
4, 44 , 259,368,2237
4, 45 , 260,368,2268
4, 46 , 261,369,2224
4, 47 , 259,369,2219
4, 48 , 264,368,2233
4, 49 , 261,369,2232
4, 50 , 257,367,2229
4, 51 , 259,368,2231
4, 52 , 260,368,2237
4, 53 , 260,369,2237
4, 54 , 270,369,2244
4, 55 , 267,368,2242
4, 56 , 267,367,2261
4, 57 , 266,369,2220
4, 58 , 264,369,2242
4, 59 , 269,369,2233
4, 60 , 269,369,2301
4, 61 , 267,368,2241
4, 62 , 266,368,2234
4, 63 , 266,369,2237
4, 64 , 265,368,2244
4, 65 , 266,368,2225
4, 66 , 270,369,2234
4, 67 , 260,368,2219
4, 68 , 265,368,2244
4, 69 , 265,368,2236
4, 70 , 265,368,2236
4, 71 , 267,368,2235
4, 72 , 265,367,2240
4, 73 , 270,368,2235
4, 74 , 269,368,2224
4, 75 , 261,368,2244
4, 76 , 260,368,2245
4, 77 , 260,369,2239
4, 78 , 260,369,2249
4, 79 , 260,369,2250
4, 80 , 264,368,2251
4, 81 , 260,369,2249
4, 82 , 260,369,2246
4, 83 , 259,368,2238
4, 84 , 259,369,2239
4, 85 , 264,370,2255
4, 86 , 265,369,2267
4, 87 , 260,368,2243
4, 88 , 260,371,2242
4, 89 , 258,372,2245
4, 90 , 260,368,2251
4, 91 , 259,369,2239
4, 92 , 265,368,2250
4, 93 , 264,367,2245
4, 94 , 259,369,2251
4, 95 , 259,368,2247
4, 96 , 258,369,2251
4, 97 , 260,368,2241
4, 98 , 260,368,2240
4, 99 , 263,368,2246
5, 6 , 259,368,2256
5, 7 , 260,367,2260
5, 8 , 259,369,2259
5, 9 , 260,369,2231
5, 10 , 264,368,2226
5, 11 , 263,367,2241
5, 12 , 259,368,2231
5, 13 , 258,368,2239
5, 14 , 260,369,2231
5, 15 , 260,368,2240
5, 16 , 260,368,2246
5, 17 , 264,367,2228
5, 18 , 263,369,2234
5, 19 , 259,369,2236
5, 20 , 259,368,2263
5, 21 , 260,369,2233
5, 22 , 260,369,2237
5, 23 , 265,369,2235
5, 24 , 264,369,2239
5, 25 , 259,368,2268
5, 26 , 260,368,2262
5, 27 , 258,369,2303
5, 28 , 260,368,2239
5, 29 , 266,369,2237
5, 30 , 264,368,2224
5, 31 , 260,369,2230
5, 32 , 259,368,2236
5, 33 , 259,369,2221
5, 34 , 259,369,2232
5, 35 , 260,368,2219
5, 36 , 264,368,2243
5, 37 , 264,369,2220
5, 38 , 292,368,2232
5, 39 , 259,368,2229
5, 40 , 260,368,2227
5, 41 , 261,368,2222
5, 42 , 260,371,2237
5, 43 , 263,369,2224
5, 44 , 263,368,2235
5, 45 , 259,368,2227
5, 46 , 261,368,2225
5, 47 , 259,369,2226
5, 48 , 259,369,2232
5, 49 , 259,369,2235
5, 50 , 264,368,2242
5, 51 , 253,368,2238
5, 52 , 260,369,2234
5, 53 , 260,369,2237
5, 54 , 260,368,2238
5, 55 , 259,374,2235
5, 56 , 260,368,2232
5, 57 , 264,369,2236
5, 58 , 265,369,2263
5, 59 , 267,368,2239
5, 60 , 266,368,2234
5, 61 , 266,368,2233
5, 62 , 270,368,2235
5, 63 , 265,368,2232
5, 64 , 266,367,2234
5, 65 , 266,372,2239
5, 66 , 266,368,2241
5, 67 , 266,369,2234
5, 68 , 270,369,2258
5, 69 , 266,369,2233
5, 70 , 265,368,2238
5, 71 , 264,367,2248
5, 72 , 265,368,2249
5, 73 , 266,369,2235
5, 74 , 267,369,2240
5, 75 , 269,367,2242
5, 76 , 265,368,2239
5, 77 , 266,369,2246
5, 78 , 266,369,2244
5, 79 , 266,369,2277
5, 80 , 288,376,3027
5, 81 , 367,399,2377
5, 82 , 282,377,2314
5, 83 , 322,376,2401
5, 84 , 273,372,2492
5, 85 , 336,371,2649
5, 86 , 314,388,2373
5, 87 , 297,375,2607
5, 88 , 272,373,2564
5, 89 , 348,370,2529
5, 90 , 281,381,2714
5, 91 , 283,369,2427
5, 92 , 329,372,2507
5, 93 , 297,370,2290
5, 94 , 294,369,2288
5, 95 , 306,387,2396
5, 96 , 294,390,2293
5, 97 , 292,369,2327
5, 98 , 293,391,2375
5, 99 , 303,381,2306
6, 7 , 276,368,2236
6, 8 , 266,369,2248
6, 9 , 261,368,2241
6, 10 , 259,368,2233
6, 11 , 259,368,2239
6, 12 , 259,368,2246
6, 13 , 260,369,2239
6, 14 , 260,368,2231
6, 15 , 264,368,2240
6, 16 , 259,369,2235
6, 17 , 259,368,2251
6, 18 , 259,369,2248
6, 19 , 259,368,2232
6, 20 , 260,368,2238
6, 21 , 264,369,2237
6, 22 , 264,369,2239
6, 23 , 260,370,2236
6, 24 , 259,369,2233
6, 25 , 260,368,2233
6, 26 , 260,368,2226
6, 27 , 260,369,2230
6, 28 , 264,368,2248
6, 29 , 265,368,2230
6, 30 , 259,367,2230
6, 31 , 259,369,2227
6, 32 , 259,368,2233
6, 33 , 259,368,2240
6, 34 , 260,368,2220
6, 35 , 265,375,2236
6, 36 , 254,368,2235
6, 37 , 258,368,2235
6, 38 , 260,368,2229
6, 39 , 259,369,2223
6, 40 , 259,368,2224
6, 41 , 259,369,2227
6, 42 , 260,368,2231
6, 43 , 262,368,2234
6, 44 , 258,368,2239
6, 45 , 259,369,2231
6, 46 , 259,368,2223
6, 47 , 259,369,2237
6, 48 , 260,369,2230
6, 49 , 261,368,2230
6, 50 , 263,368,2234
6, 51 , 259,368,2232
6, 52 , 259,367,2243
6, 53 , 258,369,2231
6, 54 , 259,368,2252
6, 55 , 319,370,2243
6, 56 , 262,368,2236
6, 57 , 260,369,2242
6, 58 , 259,368,2245
6, 59 , 260,369,2254
6, 60 , 261,369,2266
6, 61 , 263,368,2233
6, 62 , 264,369,2272
6, 63 , 260,368,2240
6, 64 , 260,368,2241
6, 65 , 259,369,2232
6, 66 , 260,368,2244
6, 67 , 259,369,2242
6, 68 , 265,368,2237
6, 69 , 254,368,2233
6, 70 , 259,368,2250
6, 71 , 259,369,2243
6, 72 , 260,369,2248
6, 73 , 260,369,2241
6, 74 , 259,372,2238
6, 75 , 263,368,2249
6, 76 , 278,371,2380
6, 77 , 260,368,2246
6, 78 , 259,369,2247
6, 79 , 260,369,2244
6, 80 , 263,369,2254
6, 81 , 263,369,2247
6, 82 , 259,368,2281
6, 83 , 259,368,2247
6, 84 , 260,370,2243
6, 85 , 259,368,2247
6, 86 , 263,369,2274
6, 87 , 263,368,2251
6, 88 , 260,368,2248
6, 89 , 260,368,2252
6, 90 , 260,369,2265
6, 91 , 259,368,2253
6, 92 , 259,368,2253
6, 93 , 263,368,2256
6, 94 , 260,368,2249
6, 95 , 259,369,2261
6, 96 , 258,372,2247
6, 97 , 259,368,2250
6, 98 , 259,373,2240
6, 99 , 262,368,2241
7, 8 , 259,368,2264
7, 9 , 259,369,2249
7, 10 , 259,368,2251
7, 11 , 259,368,2246
7, 12 , 259,369,2240
7, 13 , 264,369,2236
7, 14 , 264,369,2240
7, 15 , 260,368,2278
7, 16 , 260,368,2245
7, 17 , 259,369,2248
7, 18 , 260,368,2287
7, 19 , 264,368,2246
7, 20 , 259,368,2243
7, 21 , 258,368,2245
7, 22 , 260,368,2236
7, 23 , 258,368,2229
7, 24 , 261,369,2231
7, 25 , 259,369,2241
7, 26 , 258,372,2245
7, 27 , 263,368,2233
7, 28 , 260,369,2236
7, 29 , 259,368,2237
7, 30 , 260,369,2237
7, 31 , 259,368,2238
7, 32 , 259,369,2225
7, 33 , 264,368,2228
7, 34 , 259,367,2239
7, 35 , 259,369,2234
7, 36 , 259,369,2232
7, 37 , 259,368,2228
7, 38 , 259,368,2241
7, 39 , 259,369,2227
7, 40 , 264,367,2244
7, 41 , 261,368,2230
7, 42 , 260,368,2294
7, 43 , 259,367,2269
7, 44 , 258,369,2242
7, 45 , 259,368,2235
7, 46 , 262,368,2240
7, 47 , 263,369,2237
7, 48 , 260,369,2240
7, 49 , 260,368,2242
7, 50 , 258,369,2237
7, 51 , 259,368,2231
7, 52 , 260,369,2246
7, 53 , 259,368,2240
7, 54 , 263,368,2238
7, 55 , 260,368,2236
7, 56 , 260,369,2244
7, 57 , 259,368,2239
7, 58 , 258,368,2255
7, 59 , 260,370,2240
7, 60 , 264,368,2234
7, 61 , 263,368,2247
7, 62 , 261,368,2311
7, 63 , 260,368,2246
7, 64 , 260,369,2245
7, 65 , 259,368,2235
7, 66 , 260,370,2241
7, 67 , 263,373,2292
7, 68 , 260,373,2236
7, 69 , 254,367,2281
7, 70 , 267,369,2273
7, 71 , 259,369,2262
7, 72 , 258,388,2265
7, 73 , 260,368,2236
7, 74 , 260,371,2247
7, 75 , 260,368,2387
7, 76 , 258,367,2352
7, 77 , 257,368,2277
7, 78 , 260,368,2249
7, 79 , 271,368,2294
7, 80 , 254,367,2296
7, 81 , 255,372,2263
7, 82 , 258,369,2257
7, 83 , 284,375,2249
7, 84 , 258,371,2247
7, 85 , 259,369,2244
7, 86 , 254,368,2295
7, 87 , 259,367,2264
7, 88 , 258,369,2290
7, 89 , 254,368,2264
7, 90 , 259,368,2353
7, 91 , 253,368,2293
7, 92 , 258,369,2243
7, 93 , 254,368,2244
7, 94 , 281,368,2248
7, 95 , 253,370,2231
7, 96 , 254,370,2317
7, 97 , 259,367,2252
7, 98 , 283,367,2326
7, 99 , 255,372,2211
8, 9 , 254,367,2400
8, 10 , 286,368,2257
8, 11 , 260,374,2348
8, 12 , 255,366,2245
8, 13 , 255,369,2325
8, 14 , 255,374,2206
8, 15 , 260,368,2363
8, 16 , 254,368,2283
8, 17 , 285,383,2444
8, 18 , 267,390,2296
8, 19 , 299,367,2380
8, 20 , 294,368,2251
8, 21 , 255,370,2322
8, 22 , 255,387,2210
8, 23 , 259,371,2328
8, 24 , 254,374,2227
8, 25 , 254,369,2422
8, 26 , 254,369,2281
8, 27 , 277,373,2341
8, 28 , 255,373,2204
8, 29 , 254,366,2311
8, 30 , 269,369,2214
8, 31 , 255,368,2318
8, 32 , 257,367,2192
8, 33 , 258,380,2367
8, 34 , 254,368,2225
8, 35 , 253,367,2288
8, 36 , 268,373,2194
8, 37 , 255,367,2337
8, 38 , 264,369,2243
8, 39 , 248,367,2236
8, 40 , 258,374,2237
8, 41 , 253,371,2244
8, 42 , 253,367,2229
8, 43 , 254,368,2263
8, 44 , 254,368,2271
8, 45 , 265,370,2241
8, 46 , 260,368,2229
8, 47 , 272,367,2472
8, 48 , 259,368,2235
8, 49 , 264,368,2365
8, 50 , 253,372,2236
8, 51 , 283,368,2312
8, 52 , 254,374,2211
8, 53 , 253,371,2344
8, 54 , 247,382,2362
8, 55 , 259,368,2332
8, 56 , 253,374,2248
8, 57 , 253,369,2341
8, 58 , 259,371,2230
8, 59 , 255,367,2333
8, 60 , 268,368,2224
8, 61 , 255,369,2485
8, 62 , 257,368,2246
8, 63 , 254,368,2309
8, 64 , 254,371,2214
8, 65 , 254,368,2333
8, 66 , 254,368,2202
8, 67 , 260,368,2310
8, 68 , 253,372,2255
8, 69 , 254,369,2278
8, 70 , 255,369,2245
8, 71 , 364,391,2254
8, 72 , 297,367,2246
8, 73 , 260,368,2365
8, 74 , 260,368,2249
8, 75 , 259,369,2254
8, 76 , 260,368,2257
8, 77 , 265,368,2243
8, 78 , 259,368,2251
8, 79 , 259,368,2262
8, 80 , 259,368,2247
8, 81 , 255,368,2284
8, 82 , 261,369,2246
8, 83 , 263,373,2247
8, 84 , 259,375,2242
8, 85 , 254,368,2270
8, 86 , 254,367,2212
8, 87 , 254,368,2394
8, 88 , 258,367,2249
8, 89 , 274,368,2369
8, 90 , 254,368,2302
8, 91 , 254,369,2346
8, 92 , 276,391,2258
8, 93 , 270,367,2285
8, 94 , 260,370,2529
8, 95 , 265,368,2356
8, 96 , 260,367,2252
8, 97 , 271,368,2401
8, 98 , 259,368,2259
8, 99 , 265,368,2289
9, 10 , 274,368,2281
9, 11 , 260,368,2307
9, 12 , 259,368,2253
9, 13 , 255,368,2317
9, 14 , 257,368,2514
9, 15 , 259,368,2258
9, 16 , 259,369,2261
9, 17 , 254,368,2288
9, 18 , 264,374,2268
9, 19 , 258,368,2250
9, 20 , 260,367,2214
9, 21 , 254,368,2324
9, 22 , 254,367,2240
9, 23 , 255,368,2307
9, 24 , 259,367,2203
9, 25 , 255,368,2280
9, 26 , 254,368,2200
9, 27 , 253,369,2300
9, 28 , 255,368,2231
9, 29 , 258,368,2322
9, 30 , 373,396,2200
9, 31 , 254,368,2344
9, 32 , 254,368,2198
9, 33 , 262,368,2318
9, 34 , 254,368,2224
9, 35 , 254,368,2315
9, 36 , 254,368,2207
9, 37 , 253,368,2324
9, 38 , 258,368,2225
9, 39 , 255,367,2312
9, 40 , 253,367,2232
9, 41 , 254,367,2307
9, 42 , 254,368,2194
9, 43 , 286,368,2331
9, 44 , 254,367,2231
9, 45 , 254,369,2336
9, 46 , 253,369,2194
9, 47 , 253,368,2368
9, 48 , 257,367,2357
9, 49 , 254,370,2303
9, 50 , 254,368,2209
9, 51 , 255,368,2341
9, 52 , 259,367,2196
9, 53 , 277,367,2298
9, 54 , 255,368,2209
9, 55 , 283,368,2311
9, 56 , 254,367,2195
9, 57 , 260,368,2304
9, 58 , 282,368,2202
9, 59 , 254,370,2316
9, 60 , 282,368,2206
9, 61 , 253,367,2443
9, 62 , 286,367,2225
9, 63 , 255,367,2320
9, 64 , 288,368,2210
9, 65 , 254,369,2333
9, 66 , 288,379,2336
9, 67 , 297,368,2410
9, 68 , 345,383,2284
9, 69 , 306,384,2325
9, 70 , 261,368,2243
9, 71 , 259,369,2236
9, 72 , 259,372,2246
9, 73 , 259,369,2243
9, 74 , 263,368,2240
9, 75 , 259,369,2350
9, 76 , 259,368,2246
9, 77 , 260,369,2243
9, 78 , 259,368,2245
9, 79 , 259,369,2245
9, 80 , 263,368,2242
9, 81 , 259,368,2335
9, 82 , 260,368,2254
9, 83 , 259,368,2271
9, 84 , 258,368,2259
9, 85 , 261,368,2252
9, 86 , 263,368,2255
9, 87 , 259,369,2263
9, 88 , 259,369,2281
9, 89 , 259,368,2252
9, 90 , 260,368,2440
9, 91 , 256,367,2348
9, 92 , 283,368,2219
9, 93 , 254,368,2349
9, 94 , 281,390,2225
9, 95 , 283,387,2415
9, 96 , 283,384,2229
9, 97 , 278,378,2378
9, 98 , 274,386,2252
9, 99 , 253,380,2390
10, 11 , 277,382,2237
10, 12 , 275,385,2367
10, 13 , 254,371,2310
10, 14 , 291,388,2425
10, 15 , 295,388,2639
10, 16 , 275,385,2372
10, 17 , 257,367,2215
10, 18 , 255,369,2308
10, 19 , 254,373,2230
10, 20 , 291,384,2410
10, 21 , 286,382,2240
10, 22 , 254,367,2357
10, 23 , 269,383,2244
10, 24 , 277,387,2403
10, 25 , 278,387,2231
10, 26 , 278,384,2336
10, 27 , 281,389,2258
10, 28 , 289,387,2433
10, 29 , 278,383,2291
10, 30 , 301,381,2344
10, 31 , 268,370,2327
10, 32 , 263,372,2234
10, 33 , 259,370,2240
10, 34 , 260,369,2267
10, 35 , 265,369,2240
10, 36 , 260,367,2313
10, 37 , 259,369,2242
10, 38 , 260,368,2253
10, 39 , 259,368,2243
10, 40 , 259,369,2239
10, 41 , 263,368,2227
10, 42 , 263,369,2238
10, 43 , 260,369,2303
10, 44 , 259,368,2281
10, 45 , 259,369,2256
10, 46 , 261,370,2285
10, 47 , 264,368,2232
10, 48 , 259,369,2263
10, 49 , 258,368,2228
10, 50 , 258,369,2244
10, 51 , 259,367,2226
10, 52 , 259,368,2228
10, 53 , 258,369,2243
10, 54 , 263,368,2229
10, 55 , 259,367,2230
10, 56 , 259,368,2226
10, 57 , 259,368,2238
10, 58 , 259,368,2224
10, 59 , 261,369,2218
10, 60 , 254,368,2334
10, 61 , 255,367,2220
10, 62 , 254,367,2329
10, 63 , 256,368,2210
10, 64 , 255,368,2344
10, 65 , 257,370,2184
10, 66 , 259,367,2319
10, 67 , 255,368,2192
10, 68 , 255,390,2354
10, 69 , 255,369,2220
10, 70 , 254,372,2333
10, 71 , 254,367,2197
10, 72 , 253,373,2326
10, 73 , 270,368,2215
10, 74 , 255,370,2316
10, 75 , 263,368,2197
10, 76 , 254,368,2368
10, 77 , 254,368,2196
10, 78 , 254,368,2288
10, 79 , 259,368,2231
10, 80 , 260,372,2227
10, 81 , 263,369,2237
10, 82 , 259,369,2237
10, 83 , 260,369,2238
10, 84 , 260,368,2237
10, 85 , 259,368,2223
10, 86 , 256,368,2336
10, 87 , 259,367,2202
10, 88 , 254,368,2335
10, 89 , 255,368,2207
10, 90 , 253,372,2354
10, 91 , 254,374,2218
10, 92 , 254,372,2337
10, 93 , 248,368,2222
10, 94 , 255,368,2349
10, 95 , 255,368,2203
10, 96 , 254,368,2340
10, 97 , 260,367,2210
10, 98 , 257,368,2344
10, 99 , 254,368,2224
11, 12 , 256,373,2368
11, 13 , 255,368,2222
11, 14 , 259,368,2362
11, 15 , 254,368,2211
11, 16 , 254,367,2322
11, 17 , 253,369,2227
11, 18 , 255,369,2353
11, 19 , 259,368,2220
11, 20 , 254,371,2351
11, 21 , 278,384,2230
11, 22 , 292,382,2412
11, 23 , 265,388,2211
11, 24 , 254,380,2300
11, 25 , 253,368,2215
11, 26 , 254,369,2355
11, 27 , 285,371,2226
11, 28 , 254,367,2432
11, 29 , 272,387,2239
11, 30 , 333,369,2480
11, 31 , 260,368,2243
11, 32 , 259,368,2233
11, 33 , 260,368,2234
11, 34 , 259,369,2339
11, 35 , 263,368,2219
11, 36 , 255,371,2349
11, 37 , 308,369,2227
11, 38 , 259,367,2322
11, 39 , 267,388,2397
11, 40 , 279,380,2342
11, 41 , 295,384,2230
11, 42 , 254,372,2321
11, 43 , 260,367,2199
11, 44 , 253,367,2330
11, 45 , 265,391,2225
11, 46 , 255,368,2264
11, 47 , 291,388,2220
11, 48 , 258,369,2298
11, 49 , 254,373,2217
11, 50 , 253,367,2276
11, 51 , 253,369,2189
11, 52 , 253,368,2351
11, 53 , 394,368,2199
11, 54 , 255,368,2384
11, 55 , 253,369,2181
11, 56 , 252,368,2251
11, 57 , 255,367,2431
11, 58 , 277,383,2308
11, 59 , 263,385,2332
11, 60 , 255,372,2293
11, 61 , 258,368,2279
11, 62 , 253,369,2320
11, 63 , 254,367,2200
11, 64 , 253,368,2261
11, 65 , 254,368,2205
11, 66 , 258,368,2303
11, 67 , 276,387,2258
11, 68 , 274,373,2251
11, 69 , 253,368,2195
11, 70 , 254,368,2299
11, 71 , 277,372,2213
11, 72 , 276,385,2361
11, 73 , 283,386,2288
11, 74 , 259,368,2332
11, 75 , 255,368,2268
11, 76 , 255,369,2284
11, 77 , 254,368,2198
11, 78 , 253,371,2327
11, 79 , 254,368,2197
11, 80 , 372,368,2291
11, 81 , 255,369,2208
11, 82 , 254,368,2342
11, 83 , 256,368,2210
11, 84 , 253,367,2284
11, 85 , 255,368,2210
11, 86 , 280,368,2345
11, 87 , 254,368,2253
11, 88 , 259,369,2372
11, 89 , 256,374,2264
11, 90 , 256,367,2340
11, 91 , 255,368,2212
11, 92 , 286,382,2324
11, 93 , 255,367,2201
11, 94 , 255,374,2346
11, 95 , 272,388,2261
11, 96 , 255,368,2341
11, 97 , 286,389,2232
11, 98 , 285,368,2348
11, 99 , 285,390,2260
12, 13 , 254,371,2301
12, 14 , 258,368,2210
12, 15 , 253,369,2404
12, 16 , 266,389,2226
12, 17 , 254,368,2291
12, 18 , 259,373,2237
12, 19 , 255,367,2342
12, 20 , 266,382,2231
12, 21 , 292,389,2357
12, 22 , 285,388,2232
12, 23 , 278,385,2286
12, 24 , 265,386,2278
12, 25 , 255,368,2314
12, 26 , 259,367,2203
12, 27 , 254,372,2386
12, 28 , 252,388,2303
12, 29 , 253,367,2301
12, 30 , 258,367,2189
12, 31 , 256,370,2371
12, 32 , 254,385,2214
12, 33 , 254,375,2268
12, 34 , 253,367,2187
12, 35 , 281,386,2354
12, 36 , 282,388,2215
12, 37 , 252,381,2325
12, 38 , 253,368,2208
12, 39 , 281,385,2356
12, 40 , 253,373,2283
12, 41 , 255,367,2324
12, 42 , 253,368,2200
12, 43 , 253,374,2325
12, 44 , 259,367,2200
12, 45 , 254,367,2280
12, 46 , 254,368,2223
12, 47 , 254,369,2327
12, 48 , 253,374,2217
12, 49 , 260,367,2306
12, 50 , 289,368,2203
12, 51 , 255,367,2466
12, 52 , 254,375,2200
12, 53 , 259,367,2276
12, 54 , 253,367,2190
12, 55 , 253,375,2293
12, 56 , 254,367,2211
12, 57 , 255,368,2287
12, 58 , 285,382,2268
12, 59 , 254,368,2341
12, 60 , 294,368,2216
12, 61 , 284,389,2311
12, 62 , 258,367,2195
12, 63 , 255,372,2349
12, 64 , 265,384,2257
12, 65 , 254,368,2289
12, 66 , 284,368,2188
12, 67 , 271,387,2392
12, 68 , 330,368,2198
12, 69 , 255,368,2272
12, 70 , 257,372,2195
12, 71 , 258,368,2335
12, 72 , 255,373,2182
12, 73 , 294,368,2266
12, 74 , 279,388,2255
12, 75 , 289,380,2390
12, 76 , 280,368,2201
12, 77 , 254,373,2281
12, 78 , 255,368,2183
12, 79 , 257,373,2334
12, 80 , 254,371,2206
12, 81 , 254,371,2324
12, 82 , 254,367,2201
12, 83 , 253,369,2356
12, 84 , 281,387,2266
12, 85 , 290,384,2382
12, 86 , 292,385,2228
12, 87 , 339,388,2386
12, 88 , 275,374,2348
12, 89 , 276,375,2400
12, 90 , 314,371,2357
12, 91 , 347,375,2307
12, 92 , 307,388,2583
12, 93 , 305,374,2320
12, 94 , 272,370,2329
12, 95 , 275,369,2298
12, 96 , 272,372,2313
12, 97 , 307,388,2320
12, 98 , 284,376,2582
12, 99 , 270,375,2479
13, 14 , 283,370,2356
13, 15 , 334,373,2278
13, 16 , 298,368,2375
13, 17 , 260,368,2290
13, 18 , 259,368,2314
13, 19 , 259,379,2308
13, 20 , 264,373,2293
13, 21 , 260,368,2283
13, 22 , 259,368,2293
13, 23 , 259,368,2243
13, 24 , 259,368,2258
13, 25 , 264,368,2249
13, 26 , 260,369,2276
13, 27 , 259,369,2249
13, 28 , 261,369,2246
13, 29 , 258,369,2263
13, 30 , 259,371,2255
13, 31 , 263,369,2237
13, 32 , 259,368,2236
13, 33 , 259,368,2241
13, 34 , 259,368,2264
13, 35 , 259,368,2225
13, 36 , 264,368,2240
13, 37 , 264,368,2262
13, 38 , 260,368,2226
13, 39 , 259,369,2241
13, 40 , 260,369,2244
13, 41 , 259,369,2255
13, 42 , 259,369,2239
13, 43 , 263,368,2249
13, 44 , 259,368,2248
13, 45 , 259,368,2268
13, 46 , 259,372,2231
13, 47 , 260,369,2236
13, 48 , 260,368,2228
13, 49 , 263,369,2259
13, 50 , 263,368,2237
13, 51 , 259,368,2241
13, 52 , 259,369,2233
13, 53 , 260,369,2230
13, 54 , 259,369,2230
13, 55 , 264,368,2233
13, 56 , 264,367,2231
13, 57 , 259,368,2224
13, 58 , 259,367,2236
13, 59 , 260,368,2232
13, 60 , 259,368,2226
13, 61 , 259,369,2226
13, 62 , 263,368,2240
13, 63 , 263,369,2233
13, 64 , 259,368,2229
13, 65 , 260,368,2259
13, 66 , 259,368,2241
13, 67 , 259,368,2229
13, 68 , 259,368,2245
13, 69 , 259,369,2227
13, 70 , 263,368,2226
13, 71 , 259,368,2237
13, 72 , 258,373,2234
13, 73 , 259,369,2294
13, 74 , 258,369,2232
13, 75 , 259,367,2233
13, 76 , 260,369,2232
13, 77 , 261,368,2233
13, 78 , 260,368,2224
13, 79 , 260,373,2345
13, 80 , 259,370,2230
13, 81 , 262,369,2377
13, 82 , 283,369,2268
13, 83 , 260,367,2387
13, 84 , 262,368,2268
13, 85 , 260,373,2248
13, 86 , 294,367,2253
13, 87 , 258,368,2320
13, 88 , 260,367,2253
13, 89 , 260,369,2259
13, 90 , 260,368,2237
13, 91 , 264,369,2247
13, 92 , 263,369,2255
13, 93 , 259,368,2312
13, 94 , 258,368,2255
13, 95 , 259,368,2240
13, 96 , 259,368,2245
13, 97 , 264,368,2288
13, 98 , 253,368,2246
13, 99 , 259,368,2261
14, 15 , 259,369,2253
14, 16 , 259,370,2255
14, 17 , 258,369,2249
14, 18 , 263,368,2249
14, 19 , 263,369,2257
14, 20 , 260,368,2260
14, 21 , 259,368,2256
14, 22 , 259,369,2255
14, 23 , 260,369,2273
14, 24 , 260,368,2242
14, 25 , 263,369,2256
14, 26 , 260,368,2256
14, 27 , 260,368,2249
14, 28 , 259,369,2244
14, 29 , 259,370,2246
14, 30 , 259,369,2245
14, 31 , 264,369,2245
14, 32 , 263,367,2243
14, 33 , 258,368,2239
14, 34 , 259,368,2231
14, 35 , 258,368,2245
14, 36 , 260,369,2237
14, 37 , 259,368,2237
14, 38 , 263,368,2250
14, 39 , 260,368,2233
14, 40 , 260,367,2238
14, 41 , 258,369,2243
14, 42 , 260,368,2248
14, 43 , 259,368,2258
14, 44 , 260,369,2258
14, 45 , 287,374,2206
14, 46 , 254,368,2305
14, 47 , 261,371,2240
14, 48 , 259,369,2234
14, 49 , 259,369,2229
14, 50 , 264,369,2222
14, 51 , 263,369,2261
14, 52 , 259,369,2235
14, 53 , 260,368,2235
14, 54 , 260,369,2253
14, 55 , 259,368,2221
14, 56 , 259,369,2216
14, 57 , 263,368,2239
14, 58 , 263,368,2235
14, 59 , 259,368,2221
14, 60 , 259,367,2225
14, 61 , 259,368,2233
14, 62 , 259,370,2225
14, 63 , 259,369,2229
14, 64 , 259,372,2234
14, 65 , 263,369,2231
14, 66 , 260,368,2237
14, 67 , 259,368,2229
14, 68 , 259,368,2228
14, 69 , 259,369,2230
14, 70 , 261,368,2230
14, 71 , 261,368,2254
14, 72 , 264,369,2226
14, 73 , 259,368,2222
14, 74 , 259,368,2240
14, 75 , 258,368,2245
14, 76 , 259,368,2218
14, 77 , 254,374,2245
14, 78 , 257,368,2189
14, 79 , 259,368,2394
14, 80 , 256,367,2205
14, 81 , 269,368,2287
14, 82 , 253,371,2411
14, 83 , 255,369,2299
14, 84 , 253,367,2202
14, 85 , 254,371,2249
14, 86 , 255,368,2207
14, 87 , 255,375,2306
14, 88 , 255,374,2223
14, 89 , 254,372,2260
14, 90 , 255,371,2211
14, 91 , 255,375,2319
14, 92 , 255,368,2234
14, 93 , 259,369,2257
14, 94 , 254,368,2258
14, 95 , 254,371,2353
14, 96 , 255,368,2215
14, 97 , 254,371,2514
14, 98 , 259,373,2212
14, 99 , 253,367,2243
15, 16 , 254,367,2209
15, 17 , 254,369,2315
15, 18 , 259,367,2209
15, 19 , 258,372,2268
15, 20 , 254,373,2223
15, 21 , 256,367,2331
15, 22 , 254,371,2208
15, 23 , 254,373,2271
15, 24 , 263,367,2232
15, 25 , 254,368,2339
15, 26 , 255,374,2210
15, 27 , 269,369,2257
15, 28 , 255,374,2307
15, 29 , 258,368,2308
15, 30 , 254,371,2203
15, 31 , 254,373,2255
15, 32 , 253,368,2193
15, 33 , 254,371,2329
15, 34 , 263,367,2220
15, 35 , 257,371,2293
15, 36 , 255,374,2201
15, 37 , 267,369,2219
15, 38 , 255,369,2210
15, 39 , 254,376,2273
15, 40 , 259,373,2231
15, 41 , 260,367,2337
15, 42 , 253,372,2212
15, 43 , 267,370,2348
15, 44 , 260,368,2222
15, 45 , 258,367,2302
15, 46 , 254,368,2200
15, 47 , 255,372,2307
15, 48 , 270,368,2223
15, 49 , 254,369,2246
15, 50 , 258,373,2243
15, 51 , 254,367,2230
15, 52 , 259,369,2197
15, 53 , 259,367,2226
15, 54 , 254,368,2203
15, 55 , 258,369,2283
15, 56 , 257,369,2195
15, 57 , 254,367,2318
15, 58 , 254,368,2297
15, 59 , 273,368,2306
15, 60 , 259,371,2200
15, 61 , 258,367,2276
15, 62 , 255,368,2200
15, 63 , 259,368,2245
15, 64 , 272,370,2207
15, 65 , 254,369,2244
15, 66 , 263,369,2235
15, 67 , 255,374,2354
15, 68 , 261,380,2230
15, 69 , 271,368,2261
15, 70 , 275,370,2239
15, 71 , 287,373,2316
15, 72 , 254,373,2196
15, 73 , 258,369,2249
15, 74 , 255,369,2492
15, 75 , 255,373,2258
15, 76 , 254,371,2236
15, 77 , 258,369,2264
15, 78 , 258,368,2218
15, 79 , 259,368,2295
15, 80 , 260,374,2200
15, 81 , 253,370,2339
15, 82 , 253,367,2222
15, 83 , 259,369,2257
15, 84 , 253,368,2208
15, 85 , 263,368,2356
15, 86 , 259,369,2272
15, 87 , 253,367,2317
15, 88 , 264,368,2214
15, 89 , 260,369,2248
15, 90 , 263,368,2229
15, 91 , 263,368,2248
15, 92 , 253,370,2217
15, 93 , 258,368,2344
15, 94 , 253,371,2205
15, 95 , 253,368,2282
15, 96 , 264,367,2252
15, 97 , 254,367,2305
15, 98 , 255,367,2246
15, 99 , 254,373,2277
16, 17 , 259,369,2253
16, 18 , 276,374,2339
16, 19 , 255,373,2273
16, 20 , 253,367,2299
16, 21 , 407,373,2265
16, 22 , 252,372,2330
16, 23 , 254,393,2214
16, 24 , 254,367,2342
16, 25 , 259,373,2246
16, 26 , 258,373,2251
16, 27 , 253,368,2232
16, 28 , 254,372,2322
16, 29 , 259,368,2264
16, 30 , 259,366,2306
16, 31 , 255,374,2197
16, 32 , 254,375,2341
16, 33 , 254,374,2213
16, 34 , 258,368,2265
16, 35 , 257,370,2449
16, 36 , 259,369,2347
16, 37 , 300,400,2225
16, 38 , 255,367,2354
16, 39 , 255,367,2195
16, 40 , 255,368,2290
16, 41 , 256,367,2255
16, 42 , 259,368,2335
16, 43 , 258,367,2197
16, 44 , 254,373,2253
16, 45 , 255,371,2216
16, 46 , 269,368,2220
16, 47 , 255,368,2213
16, 48 , 259,368,2401
16, 49 , 264,376,2192
16, 50 , 254,371,2247
16, 51 , 255,372,2210
16, 52 , 259,368,2312
16, 53 , 260,368,2201
16, 54 , 254,368,2313
16, 55 , 258,368,2195
16, 56 , 254,368,2231
16, 57 , 273,367,2186
16, 58 , 254,370,2313
16, 59 , 255,368,2334
16, 60 , 259,368,2291
16, 61 , 254,374,2211
16, 62 , 254,370,2345
16, 63 , 255,367,2204
16, 64 , 267,368,2320
16, 65 , 260,370,2195
16, 66 , 259,368,2340
16, 67 , 254,368,2246
16, 68 , 254,367,2345
16, 69 , 255,368,2208
16, 70 , 258,371,2398
16, 71 , 282,382,2235
16, 72 , 283,387,2312
16, 73 , 255,368,2211
16, 74 , 259,371,2304
16, 75 , 255,367,2222
16, 76 , 255,371,2316
16, 77 , 255,371,2205
16, 78 , 253,369,2306
16, 79 , 259,368,2201
16, 80 , 256,373,2346
16, 81 , 255,374,2205
16, 82 , 254,373,2317
16, 83 , 256,372,2197
16, 84 , 254,368,2298
16, 85 , 258,367,2255
16, 86 , 254,373,2311
16, 87 , 255,368,2197
16, 88 , 278,371,2309
16, 89 , 273,371,2231
16, 90 , 255,367,2285
16, 91 , 254,367,2338
16, 92 , 254,372,2340
16, 93 , 259,370,2212
16, 94 , 254,367,2320
16, 95 , 266,369,2231
16, 96 , 253,375,2324
16, 97 , 285,368,2226
16, 98 , 287,367,2320
16, 99 , 253,367,2214
17, 18 , 254,372,2326
17, 19 , 254,368,2225
17, 20 , 259,367,2333
17, 21 , 254,368,2212
17, 22 , 255,371,2325
17, 23 , 254,370,2225
17, 24 , 254,371,2350
17, 25 , 255,368,2221
17, 26 , 254,369,2351
17, 27 , 255,368,2234
17, 28 , 254,370,2469
17, 29 , 258,368,2235
17, 30 , 253,366,2283
17, 31 , 256,369,2221
17, 32 , 254,368,2298
17, 33 , 258,368,2202
17, 34 , 257,372,2315
17, 35 , 255,370,2218
17, 36 , 254,371,2293
17, 37 , 254,369,2209
17, 38 , 253,373,2292
17, 39 , 257,367,2200
17, 40 , 253,370,2261
17, 41 , 261,369,2311
17, 42 , 254,367,2311
17, 43 , 253,368,2203
17, 44 , 259,372,2318
17, 45 , 253,367,2211
17, 46 , 254,374,2332
17, 47 , 254,369,2205
17, 48 , 254,367,2296
17, 49 , 258,370,2192
17, 50 , 257,373,2292
17, 51 , 255,372,2210
17, 52 , 255,368,2302
17, 53 , 255,367,2305
17, 54 , 261,368,2225
17, 55 , 263,371,2180
17, 56 , 254,381,2451
17, 57 , 270,368,2188
17, 58 , 255,368,2286
17, 59 , 258,373,2190
17, 60 , 258,367,2304
17, 61 , 254,367,2198
17, 62 , 255,370,2228
17, 63 , 253,368,2212
17, 64 , 259,369,2306
17, 65 , 258,371,2211
17, 66 , 297,379,2285
17, 67 , 265,390,2314
17, 68 , 263,374,2240
17, 69 , 262,369,2229
17, 70 , 284,369,2372
17, 71 , 261,368,2307
17, 72 , 259,369,2223
17, 73 , 259,369,2224
17, 74 , 260,369,2229
17, 75 , 263,368,2234
17, 76 , 259,368,2249
17, 77 , 260,368,2235
17, 78 , 259,368,2234
17, 79 , 259,368,2239
17, 80 , 260,368,2239
17, 81 , 260,369,2230
17, 82 , 263,368,2238
17, 83 , 260,372,2243
17, 84 , 254,370,2236
17, 85 , 255,367,2194
17, 86 , 254,375,2346
17, 87 , 259,368,2225
17, 88 , 317,369,2226
17, 89 , 254,368,2238
17, 90 , 254,372,2323
17, 91 , 256,367,2217
17, 92 , 253,367,2366
17, 93 , 254,367,2233
17, 94 , 254,369,2350
17, 95 , 257,373,2218
17, 96 , 254,374,2322
17, 97 , 248,373,2239
17, 98 , 255,368,2253
17, 99 , 255,370,2235
18, 19 , 268,369,2331
18, 20 , 257,367,2231
18, 21 , 258,369,2467
18, 22 , 255,367,2223
18, 23 , 254,367,2314
18, 24 , 254,368,2217
18, 25 , 259,367,2327
18, 26 , 255,367,2227
18, 27 , 253,368,2268
18, 28 , 253,372,2222
18, 29 , 254,368,2340
18, 30 , 254,368,2209
18, 31 , 255,370,2270
18, 32 , 254,368,2217
18, 33 , 253,374,2306
18, 34 , 256,390,2207
18, 35 , 257,373,2300
18, 36 , 253,367,2198
18, 37 , 252,368,2359
18, 38 , 254,368,2205
18, 39 , 254,369,2295
18, 40 , 258,372,2220
18, 41 , 253,374,2325
18, 42 , 253,368,2243
18, 43 , 254,368,2292
18, 44 , 254,388,2213
18, 45 , 248,368,2352
18, 46 , 254,367,2205
18, 47 , 283,387,2493
18, 48 , 303,372,2279
18, 49 , 311,371,2388
18, 50 , 299,382,2342
18, 51 , 256,371,2233
18, 52 , 259,369,2233
18, 53 , 259,369,2223
18, 54 , 259,368,2265
18, 55 , 264,368,2209
18, 56 , 254,367,2354
18, 57 , 254,368,2198
18, 58 , 265,387,2307
18, 59 , 284,390,2187
18, 60 , 282,382,2435
18, 61 , 276,384,2285
18, 62 , 293,391,2366
18, 63 , 277,388,2207
18, 64 , 290,373,2363
18, 65 , 291,391,2202
18, 66 , 296,372,2299
18, 67 , 286,370,2226
18, 68 , 281,387,2488
18, 69 , 268,382,2250
18, 70 , 261,369,2233
18, 71 , 258,368,2243
18, 72 , 259,368,2234
18, 73 , 259,368,2233
18, 74 , 259,372,2244
18, 75 , 263,368,2240
18, 76 , 287,376,2301
18, 77 , 277,388,2231
18, 78 , 296,387,2269
18, 79 , 263,369,2265
18, 80 , 259,368,2239
18, 81 , 259,369,2247
18, 82 , 259,368,2234
18, 83 , 259,368,2235
18, 84 , 259,369,2355
18, 85 , 293,373,2259
18, 86 , 294,384,2332
18, 87 , 286,381,2244
18, 88 , 263,382,2352
18, 89 , 254,368,2503
18, 90 , 282,383,2299
18, 91 , 288,385,2238
18, 92 , 281,381,2346
18, 93 , 284,388,2226
18, 94 , 292,382,2312
18, 95 , 276,384,2246
18, 96 , 278,382,2356
18, 97 , 285,383,2221
18, 98 , 287,382,2330
18, 99 , 289,383,2246
19, 20 , 283,387,2395
19, 21 , 281,381,2306
19, 22 , 277,385,2341
19, 23 , 265,368,2236
19, 24 , 288,368,2433
19, 25 , 277,383,2256
19, 26 , 283,387,2394
19, 27 , 255,367,2223
19, 28 , 254,371,2290
19, 29 , 255,369,2237
19, 30 , 279,386,2358
19, 31 , 268,386,2227
19, 32 , 280,381,2292
19, 33 , 282,389,2258
19, 34 , 283,385,2419
19, 35 , 260,368,2258
19, 36 , 267,368,2378
19, 37 , 259,368,2305
19, 38 , 253,372,2308
19, 39 , 254,367,2218
19, 40 , 253,369,2313
19, 41 , 255,368,2214
19, 42 , 257,373,2335
19, 43 , 254,368,2224
19, 44 , 254,374,2335
19, 45 , 255,371,2197
19, 46 , 253,367,2241
19, 47 , 259,371,2200
19, 48 , 258,368,2315
19, 49 , 254,372,2211
19, 50 , 254,368,2465
19, 51 , 252,369,2185
19, 52 , 258,367,2308
19, 53 , 253,371,2205
19, 54 , 255,368,2256
19, 55 , 254,371,2205
19, 56 , 253,368,2285
19, 57 , 255,368,2210
19, 58 , 258,372,2254
19, 59 , 254,368,2199
19, 60 , 293,375,2304
19, 61 , 255,368,2202
19, 62 , 258,373,2257
19, 63 , 255,368,2195
19, 64 , 254,368,2340
19, 65 , 264,385,2241
19, 66 , 255,367,2321
19, 67 , 259,369,2205
19, 68 , 257,373,2355
19, 69 , 254,368,2213
19, 70 , 256,371,2286
19, 71 , 255,372,2198
19, 72 , 259,368,2331
19, 73 , 253,372,2200
19, 74 , 254,368,2269
19, 75 , 255,368,2191
19, 76 , 255,368,2327
19, 77 , 254,368,2186
19, 78 , 257,368,2279
19, 79 , 254,371,2249
19, 80 , 253,367,2406
19, 81 , 254,370,2191
19, 82 , 254,372,2354
19, 83 , 253,373,2249
19, 84 , 255,372,2344
19, 85 , 254,371,2211
19, 86 , 254,368,2351
19, 87 , 258,372,2203
19, 88 , 255,368,2360
19, 89 , 254,368,2221
19, 90 , 254,368,2339
19, 91 , 259,369,2196
19, 92 , 248,367,2405
19, 93 , 254,367,2219
19, 94 , 255,370,2232
19, 95 , 254,382,2232
19, 96 , 254,368,2350
19, 97 , 254,374,2227
19, 98 , 258,371,2335
19, 99 , 254,367,2250
20, 21 , 253,368,2349
20, 22 , 255,370,2231
20, 23 , 253,374,2292
20, 24 , 258,371,2216
20, 25 , 254,367,2438
20, 26 , 254,374,2224
20, 27 , 254,367,2292
20, 28 , 258,367,2211
20, 29 , 255,370,2414
20, 30 , 253,372,2221
20, 31 , 272,368,2321
20, 32 , 258,373,2209
20, 33 , 259,374,2450
20, 34 , 252,373,2424
20, 35 , 254,368,2318
20, 36 , 258,368,2215
20, 37 , 253,369,2262
20, 38 , 253,371,2216
20, 39 , 254,373,2330
20, 40 , 255,368,2219
20, 41 , 296,382,2325
20, 42 , 254,370,2242
20, 43 , 295,373,2328
20, 44 , 254,367,2219
20, 45 , 258,374,2276
20, 46 , 254,371,2201
20, 47 , 255,374,2287
20, 48 , 255,368,2191
20, 49 , 390,382,2245
20, 50 , 254,371,2203
20, 51 , 254,367,2356
20, 52 , 254,374,2199
20, 53 , 259,368,2229
20, 54 , 259,369,2233
20, 55 , 263,368,2225
20, 56 , 259,368,2228
20, 57 , 259,370,2296
20, 58 , 259,369,2230
20, 59 , 258,369,2222
20, 60 , 260,369,2234
20, 61 , 263,368,2230
20, 62 , 263,368,2228
20, 63 , 259,372,2410
20, 64 , 270,370,2252
20, 65 , 302,369,2398
20, 66 , 312,392,2403
20, 67 , 308,394,2465
20, 68 , 281,370,2419
20, 69 , 276,370,2857
20, 70 , 316,373,2284
20, 71 , 272,371,2273
20, 72 , 297,376,2287
20, 73 , 269,369,2277
20, 74 , 271,370,2270
20, 75 , 314,370,2301
20, 76 , 287,370,2370
20, 77 , 267,367,2299
20, 78 , 260,369,2227
20, 79 , 259,368,2239
20, 80 , 259,372,2228
20, 81 , 265,368,2238
20, 82 , 260,369,2232
20, 83 , 260,368,2237
20, 84 , 260,368,2231
20, 85 , 259,369,2232
20, 86 , 259,369,2230
20, 87 , 263,368,2246
20, 88 , 264,369,2233
20, 89 , 259,368,2239
20, 90 , 259,368,2245
20, 91 , 260,369,2236
20, 92 , 260,368,2236
20, 93 , 263,369,2241
20, 94 , 261,369,2252
20, 95 , 259,367,2250
20, 96 , 258,374,2248
20, 97 , 260,369,2261
20, 98 , 259,369,2247
20, 99 , 263,368,2268
21, 22 , 289,368,2261
21, 23 , 260,369,2255
21, 24 , 259,369,2256
21, 25 , 259,369,2258
21, 26 , 260,369,2271
21, 27 , 264,368,2257
21, 28 , 259,367,2268
21, 29 , 259,368,2285
21, 30 , 258,369,2251
21, 31 , 259,368,2249
21, 32 , 263,368,2259
21, 33 , 254,368,2258
21, 34 , 259,368,2259
21, 35 , 259,368,2256
21, 36 , 259,369,2252
21, 37 , 259,368,2260
21, 38 , 263,368,2253
21, 39 , 260,368,2260
21, 40 , 258,368,2263
21, 41 , 258,368,2290
21, 42 , 259,368,2256
21, 43 , 259,370,2273
21, 44 , 262,369,2251
21, 45 , 260,368,2257
21, 46 , 260,368,2242
21, 47 , 260,368,2234
21, 48 , 259,368,2234
21, 49 , 258,369,2228
21, 50 , 259,368,2226
21, 51 , 263,369,2233
21, 52 , 259,368,2236
21, 53 , 260,368,2233
21, 54 , 258,368,2230
21, 55 , 260,369,2222
21, 56 , 258,368,2223
21, 57 , 259,369,2221
21, 58 , 264,368,2251
21, 59 , 260,367,2231
21, 60 , 261,370,2233
21, 61 , 259,370,2238
21, 62 , 261,369,2244
21, 63 , 260,368,2225
21, 64 , 264,368,2238
21, 65 , 264,367,2242
21, 66 , 259,368,2229
21, 67 , 259,369,2256
21, 68 , 259,368,2236
21, 69 , 260,368,2226
21, 70 , 258,369,2252
21, 71 , 259,369,2221
21, 72 , 263,368,2233
21, 73 , 258,368,2235
21, 74 , 259,369,2238
21, 75 , 259,367,2321
21, 76 , 259,369,2228
21, 77 , 259,369,2235
21, 78 , 263,369,2227
21, 79 , 263,368,2245
21, 80 , 260,369,2237
21, 81 , 259,368,2285
21, 82 , 259,368,2234
21, 83 , 260,369,2232
21, 84 , 259,373,2232
21, 85 , 259,368,2227
21, 86 , 260,367,2243
21, 87 , 259,369,2237
21, 88 , 259,368,2232
21, 89 , 260,369,2230
21, 90 , 257,369,2232
21, 91 , 260,373,2235
21, 92 , 262,368,2239
21, 93 , 261,369,2234
21, 94 , 260,368,2246
21, 95 , 259,369,2253
21, 96 , 259,369,2251
21, 97 , 259,368,2243
21, 98 , 263,368,2245
21, 99 , 263,369,2250
22, 23 , 259,369,2259
22, 24 , 258,368,2257
22, 25 , 259,369,2256
22, 26 , 259,368,2255
22, 27 , 259,368,2269
22, 28 , 263,368,2254
22, 29 , 259,369,2256
22, 30 , 260,367,2261
22, 31 , 259,369,2265
22, 32 , 259,369,2254
22, 33 , 259,369,2269
22, 34 , 264,369,2276
22, 35 , 258,369,2259
22, 36 , 258,368,2270
22, 37 , 260,368,2259
22, 38 , 260,369,2283
22, 39 , 263,369,2264
22, 40 , 260,368,2377
22, 41 , 259,368,2263
22, 42 , 259,369,2258
22, 43 , 258,368,2261
22, 44 , 262,369,2344
22, 45 , 263,369,2247
22, 46 , 258,368,2262
22, 47 , 260,368,2249
22, 48 , 259,369,2231
22, 49 , 259,368,2222
22, 50 , 259,368,2230
22, 51 , 264,368,2230
22, 52 , 260,375,2228
22, 53 , 259,367,2231
22, 54 , 258,367,2242
22, 55 , 268,374,2185
22, 56 , 254,369,2240
22, 57 , 260,373,2223
22, 58 , 258,368,2350
22, 59 , 254,371,2232
22, 60 , 269,369,2230
22, 61 , 254,369,2294
22, 62 , 264,369,2276
22, 63 , 289,368,2213
22, 64 , 254,370,2286
22, 65 , 255,375,2241
22, 66 , 255,368,2302
22, 67 , 258,368,2193
22, 68 , 283,369,2344
22, 69 , 283,393,2234
22, 70 , 254,369,2352
22, 71 , 259,374,2186
22, 72 , 287,367,2315
22, 73 , 255,367,2189
22, 74 , 254,373,2292
22, 75 , 281,383,2242
22, 76 , 262,372,2405
22, 77 , 282,383,2275
22, 78 , 303,373,2236
22, 79 , 264,367,2228
22, 80 , 260,369,2230
22, 81 , 259,368,2235
22, 82 , 259,371,2255
22, 83 , 255,368,2213
22, 84 , 275,368,2314
22, 85 , 257,368,2204
22, 86 , 370,371,2291
22, 87 , 254,369,2247
22, 88 , 253,367,2183
22, 89 , 257,373,2312
22, 90 , 287,385,2198
22, 91 , 277,388,2330
22, 92 , 312,388,2219
22, 93 , 279,381,2364
22, 94 , 307,387,2243
22, 95 , 282,392,2370
22, 96 , 279,384,2236
22, 97 , 288,382,2374
22, 98 , 302,368,2211
22, 99 , 288,386,2387
23, 24 , 387,384,2239
23, 25 , 282,382,2386
23, 26 , 285,369,2299
23, 27 , 254,373,2325
23, 28 , 257,374,2259
23, 29 , 254,372,2324
23, 30 , 254,369,2226
23, 31 , 283,370,2322
23, 32 , 253,374,2212
23, 33 , 257,374,2371
23, 34 , 253,371,2251
23, 35 , 264,383,2394
23, 36 , 319,377,2320
23, 37 , 254,369,2383
23, 38 , 255,374,2233
23, 39 , 259,372,2357
23, 40 , 255,375,2545
23, 41 , 255,368,2222
23, 42 , 258,372,2278
23, 43 , 254,372,2223
23, 44 , 266,367,2362
23, 45 , 264,386,2275
23, 46 , 284,388,2377
23, 47 , 292,368,2192
23, 48 , 254,372,2281
23, 49 , 258,371,2208
23, 50 , 256,372,2377
23, 51 , 281,384,2225
23, 52 , 278,384,2354
23, 53 , 259,372,2199
23, 54 , 269,386,2415
23, 55 , 267,385,2436
23, 56 , 285,396,2292
23, 57 , 254,371,2194
23, 58 , 254,367,2250
23, 59 , 253,371,2201
23, 60 , 285,383,2395
23, 61 , 277,387,2198
23, 62 , 360,393,2256
23, 63 , 259,370,2226
23, 64 , 258,368,2191
23, 65 , 254,369,2368
23, 66 , 277,384,2203
23, 67 , 294,385,2656
23, 68 , 278,386,2236
23, 69 , 254,372,2312
23, 70 , 258,367,2210
23, 71 , 253,368,2338
23, 72 , 284,383,2206
23, 73 , 268,387,2345
23, 74 , 274,384,2252
23, 75 , 254,373,2376
23, 76 , 277,389,2220
23, 77 , 291,388,2411
23, 78 , 281,387,2221
23, 79 , 280,383,2404
23, 80 , 296,381,2230
23, 81 , 253,374,2330
23, 82 , 256,371,2214
23, 83 , 253,368,2339
23, 84 , 293,387,2199
23, 85 , 253,367,2360
23, 86 , 305,389,2197
23, 87 , 289,387,2454
23, 88 , 278,381,2227
23, 89 , 281,384,2401
23, 90 , 294,387,2355
23, 91 , 280,388,2329
23, 92 , 282,387,2212
23, 93 , 258,371,2303
23, 94 , 253,367,2202
23, 95 , 256,373,2325
23, 96 , 273,370,2213
23, 97 , 289,372,2417
23, 98 , 319,390,2313
23, 99 , 255,369,2323
24, 25 , 255,367,2234
24, 26 , 257,368,2335
24, 27 , 277,370,2294
24, 28 , 282,382,2372
24, 29 , 277,386,2259
24, 30 , 252,379,2368
24, 31 , 277,386,2264
24, 32 , 281,385,2430
24, 33 , 296,386,2305
24, 34 , 259,369,2343
24, 35 , 288,375,2264
24, 36 , 259,368,2252
24, 37 , 259,368,2472
24, 38 , 254,373,2300
24, 39 , 259,372,2227
24, 40 , 259,368,2347
24, 41 , 254,377,2229
24, 42 , 259,369,2264
24, 43 , 255,367,2228
24, 44 , 263,369,2326
24, 45 , 259,369,2234
24, 46 , 255,368,2347
24, 47 , 259,369,2222
24, 48 , 255,373,2302
24, 49 , 249,368,2203
24, 50 , 259,368,2242
24, 51 , 255,367,2203
24, 52 , 259,371,2248
24, 53 , 254,373,2240
24, 54 , 260,368,2305
24, 55 , 255,368,2210
24, 56 , 259,368,2257
24, 57 , 259,371,2231
24, 58 , 259,368,2259
24, 59 , 258,369,2237
24, 60 , 259,368,2230
24, 61 , 264,368,2234
24, 62 , 252,368,2243
24, 63 , 260,368,2232
24, 64 , 259,368,2271
24, 65 , 259,369,2221
24, 66 , 259,368,2240
24, 67 , 259,368,2235
24, 68 , 263,369,2228
24, 69 , 260,368,2219
24, 70 , 259,368,2230
24, 71 , 261,367,2231
24, 72 , 258,369,2232
24, 73 , 260,369,2232
24, 74 , 260,368,2227
24, 75 , 264,369,2231
24, 76 , 263,368,2230
24, 77 , 259,368,2233
24, 78 , 259,368,2241
24, 79 , 267,369,2230
24, 80 , 259,369,2268
24, 81 , 259,369,2225
24, 82 , 262,369,2244
24, 83 , 263,367,2251
24, 84 , 259,369,2241
24, 85 , 260,369,2240
24, 86 , 259,368,2225
24, 87 , 260,369,2225
24, 88 , 259,369,2229
24, 89 , 264,368,2226
24, 90 , 263,370,2236
24, 91 , 258,368,2239
24, 92 , 260,369,2239
24, 93 , 260,369,2229
24, 94 , 259,369,2241
24, 95 , 259,369,2246
24, 96 , 264,368,2249
24, 97 , 259,368,2243
24, 98 , 261,369,2247
24, 99 , 259,368,2247
25, 26 , 259,369,2255
25, 27 , 260,368,2264
25, 28 , 259,369,2259
25, 29 , 263,368,2246
25, 30 , 260,368,2270
25, 31 , 258,368,2258
25, 32 , 259,369,2256
25, 33 , 260,369,2258
25, 34 , 260,368,2257
25, 35 , 264,368,2258
25, 36 , 259,370,2257
25, 37 , 260,368,2261
25, 38 , 259,369,2252
25, 39 , 259,368,2259
25, 40 , 259,368,2264
25, 41 , 263,368,2259
25, 42 , 259,368,2266
25, 43 , 259,369,2256
25, 44 , 260,368,2251
25, 45 , 259,369,2244
25, 46 , 259,369,2233
25, 47 , 264,369,2231
25, 48 , 259,367,2231
25, 49 , 259,368,2228
25, 50 , 259,368,2229
25, 51 , 259,368,2237
25, 52 , 257,368,2245
25, 53 , 262,368,2225
25, 54 , 264,369,2247
25, 55 , 259,368,2245
25, 56 , 259,368,2242
25, 57 , 259,368,2219
25, 58 , 260,369,2235
25, 59 , 259,374,2227
25, 60 , 263,369,2235
25, 61 , 260,368,2223
25, 62 , 259,369,2228
25, 63 , 259,368,2228
25, 64 , 259,369,2223
25, 65 , 258,368,2225
25, 66 , 259,368,2225
25, 67 , 265,367,2230
25, 68 , 264,368,2234
25, 69 , 260,368,2231
25, 70 , 259,367,2259
25, 71 , 259,369,2223
25, 72 , 259,368,2242
25, 73 , 292,370,2317
25, 74 , 264,368,2310
25, 75 , 267,374,2358
25, 76 , 261,369,2398
25, 77 , 280,371,2255
25, 78 , 259,368,2236
25, 79 , 259,368,2274
25, 80 , 261,370,2238
25, 81 , 265,369,2256
25, 82 , 297,368,2243
25, 83 , 266,368,2231
25, 84 , 260,369,2262
25, 85 , 259,368,2311
25, 86 , 259,370,2225
25, 87 , 259,368,2234
25, 88 , 264,368,2228
25, 89 , 253,368,2233
25, 90 , 258,368,2275
25, 91 , 259,368,2233
25, 92 , 260,369,2233
25, 93 , 259,369,2232
25, 94 , 261,368,2232
25, 95 , 264,369,2237
25, 96 , 259,368,2235
25, 97 , 258,368,2242
25, 98 , 260,369,2246
25, 99 , 259,368,2257
26, 27 , 264,368,2250
26, 28 , 263,368,2252
26, 29 , 259,368,2273
26, 30 , 259,367,2255
26, 31 , 259,369,2250
26, 32 , 258,368,2257
26, 33 , 264,368,2260
26, 34 , 258,368,2249
26, 35 , 259,367,2259
26, 36 , 259,368,2269
26, 37 , 310,369,2269
26, 38 , 259,369,2264
26, 39 , 264,368,2255
26, 40 , 259,367,2254
26, 41 , 258,368,2254
26, 42 , 259,372,2256
26, 43 , 258,369,2261
26, 44 , 259,368,2250
26, 45 , 263,369,2258
26, 46 , 260,369,2233
26, 47 , 259,371,2245
26, 48 , 259,368,2248
26, 49 , 259,369,2232
26, 50 , 260,369,2238
26, 51 , 260,368,2235
26, 52 , 264,368,2247
26, 53 , 259,368,2238
26, 54 , 259,369,2232
26, 55 , 258,368,2230
26, 56 , 260,368,2225
26, 57 , 260,369,2222
26, 58 , 264,369,2235
26, 59 , 260,368,2238
26, 60 , 258,368,2231
26, 61 , 260,368,2234
26, 62 , 259,369,2222
26, 63 , 259,368,2233
26, 64 , 259,369,2229
26, 65 , 263,369,2229
26, 66 , 263,369,2243
26, 67 , 260,368,2230
26, 68 , 260,368,2243
26, 69 , 269,374,2303
26, 70 , 255,373,2201
26, 71 , 259,373,2334
26, 72 , 254,371,2202
26, 73 , 259,368,2222
26, 74 , 259,368,2372
26, 75 , 258,368,2227
26, 76 , 260,368,2222
26, 77 , 263,368,2242
26, 78 , 260,369,2227
26, 79 , 259,368,2232
26, 80 , 260,367,2240
26, 81 , 259,369,2230
26, 82 , 258,368,2239
26, 83 , 259,369,2236
26, 84 , 263,369,2234
26, 85 , 260,368,2237
26, 86 , 259,367,2232
26, 87 , 258,368,2231
26, 88 , 258,368,2234
26, 89 , 258,369,2240
26, 90 , 263,369,2236
26, 91 , 264,368,2235
26, 92 , 259,367,2227
26, 93 , 259,368,2245
26, 94 , 260,368,2256
26, 95 , 259,369,2236
26, 96 , 259,369,2245
26, 97 , 260,368,2236
26, 98 , 263,371,2259
26, 99 , 259,368,2246
27, 28 , 259,368,2344
27, 29 , 277,374,2300
27, 30 , 262,368,2231
27, 31 , 255,381,2333
27, 32 , 254,367,2247
27, 33 , 259,370,2345
27, 34 , 254,373,2233
27, 35 , 264,367,2305
27, 36 , 254,368,2228
27, 37 , 253,372,2326
27, 38 , 253,373,2227
27, 39 , 257,372,2289
27, 40 , 254,367,2220
27, 41 , 255,368,2364
27, 42 , 253,368,2239
27, 43 , 253,372,2301
27, 44 , 273,391,2266
27, 45 , 255,367,2432
27, 46 , 253,372,2297
27, 47 , 264,368,2322
27, 48 , 290,368,2233
27, 49 , 260,367,2310
27, 50 , 259,369,2237
27, 51 , 259,368,2238
27, 52 , 260,368,2231
27, 53 , 263,369,2231
27, 54 , 259,368,2226
27, 55 , 259,369,2257
27, 56 , 260,368,2241
27, 57 , 259,368,2223
27, 58 , 260,369,2203
27, 59 , 258,369,2209
27, 60 , 263,369,2236
27, 61 , 253,370,2303
27, 62 , 254,366,2201
27, 63 , 268,369,2212
27, 64 , 259,369,2208
27, 65 , 259,368,2225
27, 66 , 263,369,2215
27, 67 , 253,371,2349
27, 68 , 346,369,2242
27, 69 , 259,368,2228
27, 70 , 258,368,2220
27, 71 , 264,368,2236
27, 72 , 263,369,2228
27, 73 , 283,371,2270
27, 74 , 271,369,2190
27, 75 , 388,387,2269
27, 76 , 265,368,2228
27, 77 , 258,367,2222
27, 78 , 260,368,2248
27, 79 , 253,375,2233
27, 80 , 254,367,2199
27, 81 , 258,370,2318
27, 82 , 247,374,2213
27, 83 , 258,368,2295
27, 84 , 253,370,2224
27, 85 , 270,369,2239
27, 86 , 253,368,2209
27, 87 , 258,368,2270
27, 88 , 260,367,2228
27, 89 , 255,372,2328
27, 90 , 255,369,2211
27, 91 , 258,369,2264
27, 92 , 259,368,2242
27, 93 , 257,368,2342
27, 94 , 258,369,2220
27, 95 , 259,368,2226
27, 96 , 273,369,2240
27, 97 , 254,369,2345
27, 98 , 287,367,2239
27, 99 , 254,371,2272
28, 29 , 267,368,2256
28, 30 , 259,369,2261
28, 31 , 263,368,2258
28, 32 , 248,372,2248
28, 33 , 255,370,2230
28, 34 , 254,369,2356
28, 35 , 255,373,2231
28, 36 , 263,369,2342
28, 37 , 259,368,2260
28, 38 , 254,371,2396
28, 39 , 254,368,2232
28, 40 , 264,369,2368
28, 41 , 254,367,2254
28, 42 , 266,368,2282
28, 43 , 255,372,2236
28, 44 , 265,375,2276
28, 45 , 265,369,2256
28, 46 , 254,367,2390
28, 47 , 254,370,2266
28, 48 , 253,373,2248
28, 49 , 264,368,2226
28, 50 , 259,370,2248
28, 51 , 254,373,2233
28, 52 , 255,368,2404
28, 53 , 254,367,2190
28, 54 , 260,368,2297
28, 55 , 259,369,2192
28, 56 , 254,367,2231
28, 57 , 254,368,2219
28, 58 , 254,369,2254
28, 59 , 254,368,2195
28, 60 , 259,367,2244
28, 61 , 263,368,2232
28, 62 , 255,374,2232
28, 63 , 255,371,2202
28, 64 , 254,373,2444
28, 65 , 264,369,2250
28, 66 , 275,371,2314
28, 67 , 259,371,2353
28, 68 , 253,373,2258
28, 69 , 259,373,2213
28, 70 , 264,369,2352
28, 71 , 259,369,2221
28, 72 , 268,369,2222
28, 73 , 253,369,2241
28, 74 , 259,368,2325
28, 75 , 264,368,2226
28, 76 , 259,369,2237
28, 77 , 259,369,2223
28, 78 , 254,370,2315
28, 79 , 254,367,2193
28, 80 , 259,367,2318
28, 81 , 255,373,2227
28, 82 , 259,369,2371
28, 83 , 253,368,2194
28, 84 , 253,372,2295
28, 85 , 258,371,2197
28, 86 , 253,371,2362
28, 87 , 255,369,2213
28, 88 , 253,369,2384
28, 89 , 258,368,2221
28, 90 , 255,366,2286
28, 91 , 255,371,2200
28, 92 , 255,372,2406
28, 93 , 255,382,2191
28, 94 , 350,373,2254
28, 95 , 260,369,2239
28, 96 , 259,369,2241
28, 97 , 259,368,2231
28, 98 , 253,368,2257
28, 99 , 253,374,2218
29, 30 , 258,371,2328
29, 31 , 254,369,2219
29, 32 , 253,368,2277
29, 33 , 285,368,2225
29, 34 , 259,368,2329
29, 35 , 281,388,2469
29, 36 , 270,372,2334
29, 37 , 324,375,2516
29, 38 , 275,374,2422
29, 39 , 326,374,2458
29, 40 , 296,371,2421
29, 41 , 308,369,2612
29, 42 , 314,392,2557
29, 43 , 275,388,2479
29, 44 , 306,369,2296
29, 45 , 305,375,2312
29, 46 , 269,370,2383
29, 47 , 301,411,2377
29, 48 , 293,384,2353
29, 49 , 264,375,2651
29, 50 , 344,370,2307
29, 51 , 261,371,2220
29, 52 , 260,369,2231
29, 53 , 264,369,2227
29, 54 , 263,368,2243
29, 55 , 258,367,2243
29, 56 , 259,368,2237
29, 57 , 259,367,2228
29, 58 , 259,368,2225
29, 59 , 259,368,2234
29, 60 , 264,371,2229
29, 61 , 263,368,2231
29, 62 , 259,369,2234
29, 63 , 259,369,2240
29, 64 , 260,372,2229
29, 65 , 260,369,2224
29, 66 , 259,369,2235
29, 67 , 259,367,2229
29, 68 , 263,368,2246
29, 69 , 258,368,2239
29, 70 , 259,368,2231
29, 71 , 260,368,2236
29, 72 , 258,369,2229
29, 73 , 258,368,2223
29, 74 , 259,372,2229
29, 75 , 263,368,2240
29, 76 , 259,368,2284
29, 77 , 259,368,2228
29, 78 , 258,368,2237
29, 79 , 259,369,2240
29, 80 , 258,368,2230
29, 81 , 264,369,2250
29, 82 , 255,373,2350
29, 83 , 259,368,2236
29, 84 , 271,368,2239
29, 85 , 268,373,2246
29, 86 , 255,371,2259
29, 87 , 263,368,2231
29, 88 , 260,368,2237
29, 89 , 259,368,2241
29, 90 , 266,369,2217
29, 91 , 260,368,2238
29, 92 , 259,368,2234
29, 93 , 263,367,2254
29, 94 , 253,368,2345
29, 95 , 260,369,2214
29, 96 , 270,368,2374
29, 97 , 259,369,2239
29, 98 , 259,373,2356
29, 99 , 259,371,2233
30, 31 , 266,369,2250
30, 32 , 258,369,2258
30, 33 , 259,370,2265
30, 34 , 287,380,2255
30, 35 , 254,370,2311
30, 36 , 268,370,2235
30, 37 , 259,368,2383
30, 38 , 258,367,2297
30, 39 , 261,368,2282
30, 40 , 265,370,2287
30, 41 , 262,373,2444
30, 42 , 267,367,2258
30, 43 , 261,367,2260
30, 44 , 259,368,2257
30, 45 , 258,368,2241
30, 46 , 260,370,2230
30, 47 , 259,373,2244
30, 48 , 264,368,2230
30, 49 , 260,367,2228
30, 50 , 259,367,2233
30, 51 , 259,368,2238
30, 52 , 259,369,2226
30, 53 , 259,368,2228
30, 54 , 258,369,2237
30, 55 , 263,368,2222
30, 56 , 261,367,2227
30, 57 , 258,369,2228
30, 58 , 260,368,2227
30, 59 , 259,369,2238
30, 60 , 259,369,2225
30, 61 , 259,369,2232
30, 62 , 258,369,2240
30, 63 , 260,373,2226
30, 64 , 259,368,2224
30, 65 , 255,371,2231
30, 66 , 258,369,2233
30, 67 , 258,369,2224
30, 68 , 259,369,2236
30, 69 , 263,368,2223
30, 70 , 263,368,2223
30, 71 , 259,368,2221
30, 72 , 253,371,2227
30, 73 , 259,368,2229
30, 74 , 258,368,2233
30, 75 , 259,369,2247
30, 76 , 259,371,2241
30, 77 , 254,373,2306
30, 78 , 259,368,2189
30, 79 , 258,367,2232
30, 80 , 259,369,2223
30, 81 , 258,369,2234
30, 82 , 258,371,2238
30, 83 , 263,368,2228
30, 84 , 258,368,2240
30, 85 , 259,367,2228
30, 86 , 258,368,2224
30, 87 , 259,369,2224
30, 88 , 259,369,2227
30, 89 , 264,368,2239
30, 90 , 260,368,2239
30, 91 , 260,367,2229
30, 92 , 259,367,2236
30, 93 , 259,369,2233
30, 94 , 259,369,2233
30, 95 , 263,368,2231
30, 96 , 263,368,2229
30, 97 , 259,368,2234
30, 98 , 259,368,2246
30, 99 , 259,372,2250
31, 32 , 259,368,2240
31, 33 , 257,369,2340
31, 34 , 259,374,2256
31, 35 , 258,368,2380
31, 36 , 254,371,2251
31, 37 , 260,368,2375
31, 38 , 262,368,2246
31, 39 , 253,370,2241
31, 40 , 255,370,2261
31, 41 , 259,369,2362
31, 42 , 254,376,2226
31, 43 , 286,374,2272
31, 44 , 261,367,2286
31, 45 , 253,367,2252
31, 46 , 266,369,2233
31, 47 , 258,368,2290
31, 48 , 258,369,2197
31, 49 , 258,369,2331
31, 50 , 254,372,2216
31, 51 , 270,369,2235
31, 52 , 261,374,2225
31, 53 , 265,368,2245
31, 54 , 256,368,2188
31, 55 , 259,368,2224
31, 56 , 259,367,2233
31, 57 , 270,368,2321
31, 58 , 255,372,2187
31, 59 , 256,371,2355
31, 60 , 258,368,2227
31, 61 , 258,371,2293
31, 62 , 253,371,2199
31, 63 , 258,368,2314
31, 64 , 263,367,2223
31, 65 , 259,370,2314
31, 66 , 259,368,2218
31, 67 , 254,374,2662
31, 68 , 268,370,2215
31, 69 , 254,368,2324
31, 70 , 253,370,2201
31, 71 , 260,368,2222
31, 72 , 264,369,2240
31, 73 , 254,367,2235
31, 74 , 255,371,2187
31, 75 , 254,371,2290
31, 76 , 270,368,2215
31, 77 , 265,369,2317
31, 78 , 263,368,2226
31, 79 , 253,374,2416
31, 80 , 254,372,2202
31, 81 , 252,368,2365
31, 82 , 258,371,2224
31, 83 , 254,367,2381
31, 84 , 361,372,2230
31, 85 , 261,368,2226
31, 86 , 263,369,2225
31, 87 , 258,368,2233
31, 88 , 259,368,2229
31, 89 , 259,368,2235
31, 90 , 260,369,2294
31, 91 , 264,368,2225
31, 92 , 264,368,2246
31, 93 , 254,370,2316
31, 94 , 254,367,2191
31, 95 , 271,373,2360
31, 96 , 297,382,2242
31, 97 , 279,388,2542
31, 98 , 253,389,2228
31, 99 , 257,368,2322
32, 33 , 286,383,2242
32, 34 , 254,369,2324
32, 35 , 255,372,2216
32, 36 , 258,370,2361
32, 37 , 278,384,2251
32, 38 , 277,382,2363
32, 39 , 282,384,2253
32, 40 , 286,381,2402
32, 41 , 286,386,2223
32, 42 , 285,386,2490
32, 43 , 277,370,2244
32, 44 , 285,393,2446
32, 45 , 268,388,2279
32, 46 , 253,374,2338
32, 47 , 313,388,2236
32, 48 , 295,368,2228
32, 49 , 259,368,2221
32, 50 , 260,368,2225
32, 51 , 260,369,2210
32, 52 , 254,367,2300
32, 53 , 258,368,2199
32, 54 , 253,367,2310
32, 55 , 254,368,2188
32, 56 , 254,374,2355
32, 57 , 253,368,2184
32, 58 , 286,388,2628
32, 59 , 255,369,2221
32, 60 , 253,370,2356
32, 61 , 259,366,2187
32, 62 , 254,371,2295
32, 63 , 255,372,2203
32, 64 , 258,368,2223
32, 65 , 259,367,2225
32, 66 , 258,369,2222
32, 67 , 263,368,2220
32, 68 , 262,368,2219
32, 69 , 262,368,2223
32, 70 , 259,370,2220
32, 71 , 259,367,2220
32, 72 , 258,368,2230
32, 73 , 259,369,2230
32, 74 , 259,369,2305
32, 75 , 263,368,2231
32, 76 , 254,370,2216
32, 77 , 260,368,2228
32, 78 , 259,368,2238
32, 79 , 259,369,2238
32, 80 , 259,369,2312
32, 81 , 265,369,2241
32, 82 , 259,368,2318
32, 83 , 253,370,2239
32, 84 , 272,368,2242
32, 85 , 270,369,2226
32, 86 , 258,368,2314
32, 87 , 263,368,2233
32, 88 , 258,368,2373
32, 89 , 255,373,2226
32, 90 , 268,374,2313
32, 91 , 255,373,2235
32, 92 , 263,380,2229
32, 93 , 254,370,2238
32, 94 , 258,375,2304
32, 95 , 259,368,2235
32, 96 , 259,368,2329
32, 97 , 257,367,2216
32, 98 , 261,368,2243
32, 99 , 259,368,2245
33, 34 , 259,373,2321
33, 35 , 254,374,2265
33, 36 , 260,368,2260
33, 37 , 258,368,2261
33, 38 , 260,368,2251
33, 39 , 259,369,2250
33, 40 , 259,372,2253
33, 41 , 258,369,2247
33, 42 , 259,369,2250
33, 43 , 264,368,2254
33, 44 , 263,369,2254
33, 45 , 259,371,2234
33, 46 , 253,373,2321
33, 47 , 259,369,2250
33, 48 , 258,372,2254
33, 49 , 257,368,2251
33, 50 , 254,373,2228
33, 51 , 259,368,2236
33, 52 , 258,368,2235
33, 53 , 254,367,2206
33, 54 , 260,368,2232
33, 55 , 265,368,2237
33, 56 , 263,367,2303
33, 57 , 253,367,2190
33, 58 , 259,369,2226
33, 59 , 270,367,2207
33, 60 , 266,369,2296
33, 61 , 253,368,2218
33, 62 , 258,367,2302
33, 63 , 254,367,2235
33, 64 , 253,368,2232
33, 65 , 269,371,2376
33, 66 , 259,368,2234
33, 67 , 262,368,2215
33, 68 , 263,368,2300
33, 69 , 254,367,2195
33, 70 , 254,373,2311
33, 71 , 254,369,2195
33, 72 , 259,369,2310
33, 73 , 255,368,2212
33, 74 , 255,369,2226
33, 75 , 258,368,2229
33, 76 , 255,371,2312
33, 77 , 254,370,2185
33, 78 , 258,367,2215
33, 79 , 263,368,2234
33, 80 , 259,367,2218
33, 81 , 253,372,2217
33, 82 , 258,369,2234
33, 83 , 259,369,2235
33, 84 , 254,368,2304
33, 85 , 254,368,2224
33, 86 , 258,371,2225
33, 87 , 259,369,2251
33, 88 , 259,368,2246
33, 89 , 254,370,2206
33, 90 , 254,374,2261
33, 91 , 263,369,2233
33, 92 , 252,368,2313
33, 93 , 259,368,2223
33, 94 , 253,370,2350
33, 95 , 259,369,2234
33, 96 , 258,373,2452
33, 97 , 255,372,2210
33, 98 , 272,373,2312
33, 99 , 255,368,2193
34, 35 , 254,369,2270
34, 36 , 247,373,2231
34, 37 , 255,373,2314
34, 38 , 269,368,2236
34, 39 , 255,374,2317
34, 40 , 257,381,2265
34, 41 , 259,369,2261
34, 42 , 258,367,2213
34, 43 , 254,374,2313
34, 44 , 253,368,2261
34, 45 , 258,369,2219
34, 46 , 260,369,2227
34, 47 , 260,368,2239
34, 48 , 271,373,2222
34, 49 , 260,368,2316
34, 50 , 254,369,2229
34, 51 , 263,368,2336
34, 52 , 259,368,2228
34, 53 , 255,369,2229
34, 54 , 260,368,2234
34, 55 , 255,367,2307
34, 56 , 263,369,2235
34, 57 , 259,367,2221
34, 58 , 258,373,2241
34, 59 , 272,369,2341
34, 60 , 254,367,2187
34, 61 , 262,368,2229
34, 62 , 253,367,2219
34, 63 , 258,369,2324
34, 64 , 254,377,2216
34, 65 , 271,368,2313
34, 66 , 259,369,2230
34, 67 , 265,368,2223
34, 68 , 259,368,2222
34, 69 , 254,371,2281
34, 70 , 254,373,2194
34, 71 , 259,370,2229
34, 72 , 259,369,2318
34, 73 , 259,369,2224
34, 74 , 259,368,2223
34, 75 , 254,370,2279
34, 76 , 253,373,2185
34, 77 , 254,369,2243
34, 78 , 263,368,2199
34, 79 , 247,368,2266
34, 80 , 259,368,2260
34, 81 , 254,371,2246
34, 82 , 255,367,2191
34, 83 , 255,372,2315
34, 84 , 248,369,2187
34, 85 , 255,367,2289
34, 86 , 266,368,2219
34, 87 , 255,367,2444
34, 88 , 257,368,2195
34, 89 , 254,368,2276
34, 90 , 253,368,2207
34, 91 , 253,372,2284
34, 92 , 253,368,2196
34, 93 , 258,367,2327
34, 94 , 298,382,2238
34, 95 , 368,368,2388
34, 96 , 274,370,2233
34, 97 , 296,389,2373
34, 98 , 266,373,2263
34, 99 , 260,371,2279
35, 36 , 324,368,2333
35, 37 , 259,369,2318
35, 38 , 259,368,2249
35, 39 , 259,368,2246
35, 40 , 260,369,2263
35, 41 , 264,370,2251
35, 42 , 259,368,2252
35, 43 , 260,368,2246
35, 44 , 259,369,2245
35, 45 , 259,368,2256
35, 46 , 260,372,2229
35, 47 , 263,369,2244
35, 48 , 258,367,2235
35, 49 , 259,368,2235
35, 50 , 259,369,2226
35, 51 , 260,368,2239
35, 52 , 259,368,2222
35, 53 , 258,370,2224
35, 54 , 265,369,2230
35, 55 , 262,369,2220
35, 56 , 259,372,2187
35, 57 , 253,371,2320
35, 58 , 269,369,2243
35, 59 , 278,385,2366
35, 60 , 276,388,2218
35, 61 , 280,384,2269
35, 62 , 279,389,2208
35, 63 , 292,386,2342
35, 64 , 269,371,2212
35, 65 , 272,399,2372
35, 66 , 286,382,2214
35, 67 , 307,382,2557
35, 68 , 278,385,2208
35, 69 , 285,386,2369
35, 70 , 254,368,2183
35, 71 , 254,368,2323
35, 72 , 253,368,2186
35, 73 , 277,386,2377
35, 74 , 270,381,2220
35, 75 , 258,382,2353
35, 76 , 277,368,2225
35, 77 , 304,386,2388
35, 78 , 282,384,2237
35, 79 , 277,383,2420
35, 80 , 282,389,2211
35, 81 , 303,383,2404
35, 82 , 295,388,2644
35, 83 , 276,386,2334
35, 84 , 277,383,2245
35, 85 , 258,372,2319
35, 86 , 255,367,2201
35, 87 , 254,367,2294
35, 88 , 263,378,2233
35, 89 , 284,377,2397
35, 90 , 277,388,2234
35, 91 , 325,382,2314
35, 92 , 292,387,2201
35, 93 , 286,381,2395
35, 94 , 278,385,2347
35, 95 , 278,384,2532
35, 96 , 264,367,2195
35, 97 , 299,375,2308
35, 98 , 254,367,2205
35, 99 , 258,368,2325
36, 37 , 254,370,2223
36, 38 , 291,382,2360
36, 39 , 283,387,2216
36, 40 , 269,368,2372
36, 41 , 279,383,2277
36, 42 , 277,383,2400
36, 43 , 287,371,2215
36, 44 , 254,369,2419
36, 45 , 278,385,2226
36, 46 , 295,383,2374
36, 47 , 267,381,2221
36, 48 , 277,384,2520
36, 49 , 283,385,2194
36, 50 , 255,372,2297
36, 51 , 255,369,2189
36, 52 , 253,373,2331
36, 53 , 286,382,2210
36, 54 , 293,382,2275
36, 55 , 282,384,2210
36, 56 , 284,381,2352
36, 57 , 285,381,2259
36, 58 , 301,382,2355
36, 59 , 319,389,2252
36, 60 , 288,368,2335
36, 61 , 266,372,2190
36, 62 , 269,387,2371
36, 63 , 272,382,2454
36, 64 , 275,385,2356
36, 65 , 253,373,2189
36, 66 , 259,372,2290
36, 67 , 287,374,2184
36, 68 , 276,374,2286
36, 69 , 302,390,2224
36, 70 , 286,383,2357
36, 71 , 301,385,2255
36, 72 , 276,386,2357
36, 73 , 273,388,2241
36, 74 , 254,368,2243
36, 75 , 254,368,2276
36, 76 , 255,368,2341
36, 77 , 279,382,2226
36, 78 , 286,383,2412
36, 79 , 407,373,2253
36, 80 , 259,368,2293
36, 81 , 252,372,2189
36, 82 , 253,367,2248
36, 83 , 292,385,2212
36, 84 , 279,383,2340
36, 85 , 296,386,2201
36, 86 , 253,372,2371
36, 87 , 269,386,2203
36, 88 , 307,387,2357
36, 89 , 279,368,2252
36, 90 , 266,385,2331
36, 91 , 256,374,2329
36, 92 , 277,386,2328
36, 93 , 281,383,2206
36, 94 , 280,382,2361
36, 95 , 278,381,2226
36, 96 , 267,370,2325
36, 97 , 287,382,2231
36, 98 , 295,383,2378
36, 99 , 278,383,2273
37, 38 , 284,386,2335
37, 39 , 285,371,2256
37, 40 , 293,373,2396
37, 41 , 267,383,2244
37, 42 , 305,389,2528
37, 43 , 264,383,2230
37, 44 , 278,382,2367
37, 45 , 259,370,2207
37, 46 , 284,367,2313
37, 47 , 254,371,2209
37, 48 , 264,386,2354
37, 49 , 285,382,2198
37, 50 , 287,389,2342
37, 51 , 278,383,2213
37, 52 , 278,385,2357
37, 53 , 271,384,2209
37, 54 , 282,385,2349
37, 55 , 280,389,2210
37, 56 , 282,381,2404
37, 57 , 286,385,2249
37, 58 , 288,382,2418
37, 59 , 282,382,2576
37, 60 , 273,369,2366
37, 61 , 259,370,2197
37, 62 , 316,371,2288
37, 63 , 262,368,2281
37, 64 , 258,370,2221
37, 65 , 259,368,2229
37, 66 , 260,373,2277
37, 67 , 264,368,2235
37, 68 , 261,369,2235
37, 69 , 260,368,2239
37, 70 , 260,368,2350
37, 71 , 258,369,2206
37, 72 , 258,374,2315
37, 73 , 255,369,2387
37, 74 , 253,369,2299
37, 75 , 259,369,2207
37, 76 , 255,372,2256
37, 77 , 254,372,2188
37, 78 , 254,370,2298
37, 79 , 255,370,2197
37, 80 , 257,368,2293
37, 81 , 253,371,2187
37, 82 , 253,371,2322
37, 83 , 256,368,2221
37, 84 , 254,368,2293
37, 85 , 254,366,2202
37, 86 , 254,374,2300
37, 87 , 259,369,2231
37, 88 , 259,384,2240
37, 89 , 259,368,2241
37, 90 , 264,367,2239
37, 91 , 253,368,2233
37, 92 , 259,368,2242
37, 93 , 258,368,2231
37, 94 , 259,370,2239
37, 95 , 259,368,2240
37, 96 , 259,369,2242
37, 97 , 263,368,2240
37, 98 , 260,369,2256
37, 99 , 259,369,2247
38, 39 , 259,368,2257
38, 40 , 263,368,2246
38, 41 , 259,369,2323
38, 42 , 264,369,2257
38, 43 , 310,374,2290
38, 44 , 288,372,2343
38, 45 , 259,368,2250
38, 46 , 264,368,2237
38, 47 , 260,369,2236
38, 48 , 260,368,2246
38, 49 , 258,369,2231
38, 50 , 258,368,2233
38, 51 , 258,368,2228
38, 52 , 259,368,2226
38, 53 , 259,368,2235
38, 54 , 262,368,2229
38, 55 , 258,368,2231
38, 56 , 289,372,2226
38, 57 , 260,368,2232
38, 58 , 260,369,2240
38, 59 , 259,369,2221
38, 60 , 263,369,2220
38, 61 , 259,368,2229
38, 62 , 259,368,2231
38, 63 , 260,367,2224
38, 64 , 260,369,2233
38, 65 , 258,368,2230
38, 66 , 259,368,2225
38, 67 , 264,368,2227
38, 68 , 263,368,2233
38, 69 , 259,368,2233
38, 70 , 260,369,2238
38, 71 , 259,369,2230
38, 72 , 259,369,2239
38, 73 , 257,369,2229
38, 74 , 258,368,2226
38, 75 , 264,368,2231
38, 76 , 260,368,2228
38, 77 , 260,368,2224
38, 78 , 259,369,2229
38, 79 , 259,368,2228
38, 80 , 260,369,2223
38, 81 , 259,372,2230
38, 82 , 263,367,2234
38, 83 , 259,368,2225
38, 84 , 259,368,2235
38, 85 , 258,368,2238
38, 86 , 259,369,2230
38, 87 , 336,370,2241
38, 88 , 271,369,2354
38, 89 , 312,384,2378
38, 90 , 399,376,2396
38, 91 , 326,389,2348
38, 92 , 288,371,2562
38, 93 , 272,369,2513
38, 94 , 288,371,2291
38, 95 , 269,369,2446
38, 96 , 274,388,2659
38, 97 , 268,370,2275
38, 98 , 265,371,2521
38, 99 , 297,369,2433
39, 40 , 322,370,2302
39, 41 , 291,387,2346
39, 42 , 302,368,2258
39, 43 , 288,387,2385
39, 44 , 289,368,2249
39, 45 , 261,375,2291
39, 46 , 294,368,2245
39, 47 , 259,369,2343
39, 48 , 288,368,2270
39, 49 , 288,368,2282
39, 50 , 281,375,2226
39, 51 , 288,368,2330
39, 52 , 287,369,2224
39, 53 , 292,370,2293
39, 54 , 287,370,2277
39, 55 , 289,368,2279
39, 56 , 288,368,2235
39, 57 , 288,369,2324
39, 58 , 263,374,2215
39, 59 , 287,370,2292
39, 60 , 260,375,2223
39, 61 , 288,369,2340
39, 62 , 262,374,2239
39, 63 , 258,368,2289
39, 64 , 257,368,2237
39, 65 , 259,370,2327
39, 66 , 260,368,2225
39, 67 , 264,368,2306
39, 68 , 259,369,2234
39, 69 , 260,368,2406
39, 70 , 260,368,2225
39, 71 , 263,370,2324
39, 72 , 259,368,2229
39, 73 , 259,368,2261
39, 74 , 259,368,2228
39, 75 , 259,369,2239
39, 76 , 258,368,2223
39, 77 , 263,368,2243
39, 78 , 254,368,2234
39, 79 , 258,368,2242
39, 80 , 259,368,2228
39, 81 , 258,369,2243
39, 82 , 259,368,2229
39, 83 , 259,369,2230
39, 84 , 263,369,2233
39, 85 , 260,371,2237
39, 86 , 259,368,2234
39, 87 , 258,367,2267
39, 88 , 259,369,2234
39, 89 , 259,369,2229
39, 90 , 258,372,2237
39, 91 , 262,369,2226
39, 92 , 258,369,2243
39, 93 , 259,368,2232
39, 94 , 259,369,2237
39, 95 , 258,368,2234
39, 96 , 259,368,2238
39, 97 , 261,368,2233
39, 98 , 263,369,2236
39, 99 , 261,368,2265
40, 41 , 260,368,2251
40, 42 , 259,368,2260
40, 43 , 259,369,2251
40, 44 , 261,369,2259
40, 45 , 264,368,2261
40, 46 , 260,368,2339
40, 47 , 259,369,2247
40, 48 , 253,368,2241
40, 49 , 260,369,2234
40, 50 , 258,368,2306
40, 51 , 259,369,2231
40, 52 , 260,374,2235
40, 53 , 260,369,2227
40, 54 , 259,368,2239
40, 55 , 259,371,2230
40, 56 , 259,368,2228
40, 57 , 254,368,2222
40, 58 , 260,368,2233
40, 59 , 259,381,2196
40, 60 , 282,368,2306
40, 61 , 254,369,2194
40, 62 , 257,367,2232
40, 63 , 254,367,2226
40, 64 , 254,371,2297
40, 65 , 253,369,2232
40, 66 , 282,368,2282
40, 67 , 254,367,2190
40, 68 , 257,368,2359
40, 69 , 254,367,2253
40, 70 , 254,368,2279
40, 71 , 254,375,2357
40, 72 , 258,368,2325
40, 73 , 253,367,2189
40, 74 , 254,367,2240
40, 75 , 254,368,2226
40, 76 , 255,368,2328
40, 77 , 255,367,2231
40, 78 , 254,368,2276
40, 79 , 254,369,2192
40, 80 , 254,368,2263
40, 81 , 255,369,2231
40, 82 , 257,369,2282
40, 83 , 307,368,2249
40, 84 , 280,369,2347
40, 85 , 255,369,2240
40, 86 , 253,369,2331
40, 87 , 257,367,2200
40, 88 , 287,387,2301
40, 89 , 288,386,2242
40, 90 , 278,385,2351
40, 91 , 279,367,2246
40, 92 , 254,381,2352
40, 93 , 278,389,2243
40, 94 , 294,397,2377
40, 95 , 281,385,2267
40, 96 , 269,384,2310
40, 97 , 282,387,2236
40, 98 , 277,382,2406
40, 99 , 290,384,2326
41, 42 , 286,389,2388
41, 43 , 299,386,2493
41, 44 , 259,368,2345
41, 45 , 255,368,2248
41, 46 , 253,368,2339
41, 47 , 277,382,2306
41, 48 , 295,373,2255
41, 49 , 260,369,2233
41, 50 , 259,372,2226
41, 51 , 260,369,2207
41, 52 , 255,367,2335
41, 53 , 289,383,2238
41, 54 , 281,381,2326
41, 55 , 278,383,2343
41, 56 , 286,384,2456
41, 57 , 284,367,2266
41, 58 , 276,383,2627
41, 59 , 255,367,2224
41, 60 , 255,368,2288
41, 61 , 254,369,2193
41, 62 , 278,388,2353
41, 63 , 290,382,2260
41, 64 , 253,367,2286
41, 65 , 282,382,2259
41, 66 , 283,384,2400
41, 67 , 287,387,2227
41, 68 , 285,385,2284
41, 69 , 278,390,2207
41, 70 , 282,384,2372
41, 71 , 281,384,2230
41, 72 , 276,389,2339
41, 73 , 296,387,2256
41, 74 , 286,383,2366
41, 75 , 277,379,2283
41, 76 , 375,367,2311
41, 77 , 254,367,2231
41, 78 , 253,368,2346
41, 79 , 256,368,2223
41, 80 , 255,382,2380
41, 81 , 254,373,2213
41, 82 , 281,371,2435
41, 83 , 287,388,2266
41, 84 , 297,389,2326
41, 85 , 252,384,2329
41, 86 , 284,383,2363
41, 87 , 285,370,2257
41, 88 , 255,374,2457
41, 89 , 255,374,2193
41, 90 , 257,372,2239
41, 91 , 257,367,2208
41, 92 , 255,367,2349
41, 93 , 284,382,2226
41, 94 , 287,387,2341
41, 95 , 287,387,2256
41, 96 , 267,387,2357
41, 97 , 306,387,2223
41, 98 , 285,382,2275
41, 99 , 281,383,2223
42, 43 , 300,370,2625
42, 44 , 254,368,2208
42, 45 , 283,368,2305
42, 46 , 254,367,2203
42, 47 , 254,370,2355
42, 48 , 281,381,2243
42, 49 , 284,383,2327
42, 50 , 281,387,2267
42, 51 , 294,383,2350
42, 52 , 295,376,2211
42, 53 , 254,376,2355
42, 54 , 272,369,2198
42, 55 , 296,382,2476
42, 56 , 254,367,2191
42, 57 , 289,376,2303
42, 58 , 284,386,2246
42, 59 , 285,384,2392
42, 60 , 277,384,2230
42, 61 , 312,383,2332
42, 62 , 430,390,2232
42, 63 , 253,371,2239
42, 64 , 254,367,2218
42, 65 , 252,368,2295
42, 66 , 285,387,2220
42, 67 , 267,387,2330
42, 68 , 286,367,2243
42, 69 , 278,389,2397
42, 70 , 282,384,2218
42, 71 , 286,367,2270
42, 72 , 308,387,2210
42, 73 , 275,369,2516
42, 74 , 290,369,2202
42, 75 , 284,387,2343
42, 76 , 309,382,2208
42, 77 , 293,384,2372
42, 78 , 292,388,2256
42, 79 , 304,382,2349
42, 80 , 283,384,2255
42, 81 , 293,387,2410
42, 82 , 334,382,2362
42, 83 , 293,387,2361
42, 84 , 258,371,2246
42, 85 , 334,381,2340
42, 86 , 255,391,2221
42, 87 , 284,372,2372
42, 88 , 286,376,2337
42, 89 , 279,372,2295
42, 90 , 312,385,2208
42, 91 , 254,375,2345
42, 92 , 286,368,2197
42, 93 , 254,368,2302
42, 94 , 292,369,2256
42, 95 , 254,368,2348
42, 96 , 296,368,2210
42, 97 , 288,368,2326
42, 98 , 280,381,2264
42, 99 , 321,389,2336
43, 44 , 316,382,2329
43, 45 , 254,368,2314
43, 46 , 320,386,2549
43, 47 , 287,368,2335
43, 48 , 253,374,2262
43, 49 , 293,390,2357
43, 50 , 255,372,2226
43, 51 , 257,368,2257
43, 52 , 254,368,2200
43, 53 , 281,381,2398
43, 54 , 293,385,2248
43, 55 , 287,372,2349
43, 56 , 283,367,2322
43, 57 , 259,374,2259
43, 58 , 259,369,2233
43, 59 , 259,368,2238
43, 60 , 263,368,2238
43, 61 , 263,368,2255
43, 62 , 259,369,2265
43, 63 , 259,381,2313
43, 64 , 254,371,2225
43, 65 , 254,370,2348
43, 66 , 287,368,2248
43, 67 , 334,382,2316
43, 68 , 282,367,2254
43, 69 , 292,391,2304
43, 70 , 264,368,2229
43, 71 , 259,368,2231
43, 72 , 259,368,2239
43, 73 , 259,368,2266
43, 74 , 259,369,2273
43, 75 , 259,369,2237
43, 76 , 260,368,2241
43, 77 , 264,371,2329
43, 78 , 260,368,2241
43, 79 , 259,368,2392
43, 80 , 260,369,2236
43, 81 , 264,368,2243
43, 82 , 258,368,2231
43, 83 , 259,368,2243
43, 84 , 259,368,2238
43, 85 , 260,369,2267
43, 86 , 260,368,2239
43, 87 , 257,368,2275
43, 88 , 263,368,2247
43, 89 , 259,368,2240
43, 90 , 259,368,2244
43, 91 , 259,369,2233
43, 92 , 269,368,2273
43, 93 , 259,369,2239
43, 94 , 262,369,2240
43, 95 , 264,369,2300
43, 96 , 259,368,2253
43, 97 , 258,369,2293
43, 98 , 258,369,2243
43, 99 , 263,368,2254
44, 45 , 257,368,2255
44, 46 , 259,367,2262
44, 47 , 259,368,2251
44, 48 , 259,368,2237
44, 49 , 259,368,2243
44, 50 , 259,373,2235
44, 51 , 263,368,2244
44, 52 , 254,368,2230
44, 53 , 254,369,2203
44, 54 , 259,369,2223
44, 55 , 271,368,2230
44, 56 , 259,370,2236
44, 57 , 257,374,2225
44, 58 , 262,368,2319
44, 59 , 259,371,2193
44, 60 , 283,380,2357
44, 61 , 259,368,2222
44, 62 , 258,368,2272
44, 63 , 264,368,2229
44, 64 , 296,375,2370
44, 65 , 259,370,2232
44, 66 , 260,368,2412
44, 67 , 263,368,2237
44, 68 , 263,367,2253
44, 69 , 284,369,2231
44, 70 , 284,367,2284
44, 71 , 271,369,2231
44, 72 , 258,369,2312
44, 73 , 260,368,2219
44, 74 , 258,376,2280
44, 75 , 259,368,2236
44, 76 , 283,381,2305
44, 77 , 260,369,2247
44, 78 , 259,368,2232
44, 79 , 264,368,2376
44, 80 , 253,368,2199
44, 81 , 260,368,2300
44, 82 , 259,368,2222
44, 83 , 255,373,2244
44, 84 , 255,368,2259
44, 85 , 262,371,2304
44, 86 , 253,370,2437
44, 87 , 270,372,2328
44, 88 , 254,367,2243
44, 89 , 287,374,2351
44, 90 , 259,368,2276
44, 91 , 271,368,2284
44, 92 , 254,372,2243
44, 93 , 263,368,2365
44, 94 , 258,368,2247
44, 95 , 258,368,2284
44, 96 , 270,369,2237
44, 97 , 259,368,2243
44, 98 , 263,369,2235
44, 99 , 253,368,2289
45, 46 , 259,368,2246
45, 47 , 258,368,2244
45, 48 , 271,369,2249
45, 49 , 253,369,2256
45, 50 , 258,368,2201
45, 51 , 254,371,2245
45, 52 , 259,367,2250
45, 53 , 267,368,2243
45, 54 , 262,368,2194
45, 55 , 259,368,2273
45, 56 , 259,367,2253
45, 57 , 258,368,2333
45, 58 , 254,387,2366
45, 59 , 260,369,2267
45, 60 , 258,367,2205
45, 61 , 254,367,2305
45, 62 , 258,368,2233
45, 63 , 259,368,2274
45, 64 , 260,369,2252
45, 65 , 388,378,2309
45, 66 , 255,367,2214
45, 67 , 259,367,2239
45, 68 , 271,368,2208
45, 69 , 259,368,2279
45, 70 , 262,369,2248
45, 71 , 259,369,2286
45, 72 , 261,368,2243
45, 73 , 261,369,2243
45, 74 , 260,368,2248
45, 75 , 260,368,2244
45, 76 , 263,368,2243
45, 77 , 259,368,2244
45, 78 , 259,368,2246
45, 79 , 259,369,2233
45, 80 , 259,367,2243
45, 81 , 260,369,2241
45, 82 , 260,369,2244
45, 83 , 263,368,2231
45, 84 , 259,368,2246
45, 85 , 259,368,2272
45, 86 , 259,368,2235
45, 87 , 258,369,2238
45, 88 , 258,369,2237
45, 89 , 264,369,2241
45, 90 , 262,368,2235
45, 91 , 258,368,2240
45, 92 , 259,368,2236
45, 93 , 259,369,2243
45, 94 , 260,369,2250
45, 95 , 260,372,2243
45, 96 , 263,368,2264
45, 97 , 259,368,2236
45, 98 , 318,369,2241
45, 99 , 259,369,2255
46, 47 , 259,368,2249
46, 48 , 259,368,2243
46, 49 , 264,368,2233
46, 50 , 260,369,2247
46, 51 , 259,368,2246
46, 52 , 259,369,2242
46, 53 , 258,369,2246
46, 54 , 259,368,2240
46, 55 , 259,369,2234
46, 56 , 263,368,2237
46, 57 , 259,369,2233
46, 58 , 260,368,2243
46, 59 , 259,372,2233
46, 60 , 259,369,2235
46, 61 , 259,369,2231
46, 62 , 264,369,2241
46, 63 , 263,369,2243
46, 64 , 259,368,2250
46, 65 , 259,367,2242
46, 66 , 268,367,2230
46, 67 , 259,368,2236
46, 68 , 255,368,2278
46, 69 , 258,370,2261
46, 70 , 253,368,2366
46, 71 , 259,370,2234
46, 72 , 253,369,2277
46, 73 , 260,368,2491
46, 74 , 260,368,2340
46, 75 , 254,368,2291
46, 76 , 254,369,2260
46, 77 , 264,368,2236
46, 78 , 260,368,2354
46, 79 , 253,368,2209
46, 80 , 259,368,2229
46, 81 , 259,369,2255
46, 82 , 255,371,2245
46, 83 , 262,368,2236
46, 84 , 254,369,2306
46, 85 , 258,367,2250
46, 86 , 271,368,2353
46, 87 , 258,368,2247
46, 88 , 256,368,2236
46, 89 , 254,367,2265
46, 90 , 259,367,2272
46, 91 , 253,368,2280
46, 92 , 259,368,2295
46, 93 , 263,368,2244
46, 94 , 254,370,2250
46, 95 , 281,393,2266
46, 96 , 259,369,2249
46, 97 , 258,368,2248
46, 98 , 254,381,2335
46, 99 , 254,368,2257
47, 48 , 253,368,2345
47, 49 , 253,369,2235
47, 50 , 259,369,2241
47, 51 , 253,368,2270
47, 52 , 261,372,2334
47, 53 , 259,369,2232
47, 54 , 267,368,2242
47, 55 , 262,368,2220
47, 56 , 255,371,2362
47, 57 , 280,368,2240
47, 58 , 255,373,2242
47, 59 , 267,369,2225
47, 60 , 260,369,2316
47, 61 , 274,367,2202
47, 62 , 258,368,2230
47, 63 , 260,371,2222
47, 64 , 260,370,2315
47, 65 , 269,369,2232
47, 66 , 259,373,2241
47, 67 , 264,368,2237
47, 68 , 254,368,2240
47, 69 , 259,368,2273
47, 70 , 260,369,2287
47, 71 , 271,370,2239
47, 72 , 258,368,2247
47, 73 , 263,369,2238
47, 74 , 254,370,2243
47, 75 , 253,367,2234
47, 76 , 259,368,2247
47, 77 , 259,370,2225
47, 78 , 259,369,2342
47, 79 , 264,368,2246
47, 80 , 253,370,2280
47, 81 , 254,367,2254
47, 82 , 270,372,2408
47, 83 , 265,388,2232
47, 84 , 264,368,2235
47, 85 , 260,368,2258
47, 86 , 260,368,2347
47, 87 , 254,370,2236
47, 88 , 259,368,2251
47, 89 , 256,371,2264
47, 90 , 254,374,2329
47, 91 , 259,368,2238
47, 92 , 271,368,2255
47, 93 , 259,368,2243
47, 94 , 257,368,2390
47, 95 , 260,368,2228
47, 96 , 253,371,2294
47, 97 , 270,369,2236
47, 98 , 256,375,2412
47, 99 , 260,368,2233
48, 49 , 259,369,2269
48, 50 , 259,369,2237
48, 51 , 268,369,2254
48, 52 , 259,369,2270
48, 53 , 263,368,2348
48, 54 , 259,368,2232
48, 55 , 253,372,2266
48, 56 , 268,369,2246
48, 57 , 255,368,2376
48, 58 , 262,368,2228
48, 59 , 260,367,2243
48, 60 , 260,368,2262
48, 61 , 271,369,2404
48, 62 , 254,371,2197
48, 63 , 264,368,2292
48, 64 , 254,372,2246
48, 65 , 255,368,2346
48, 66 , 259,368,2221
48, 67 , 259,368,2242
48, 68 , 263,369,2245
48, 69 , 254,371,2244
48, 70 , 259,370,2236
48, 71 , 266,368,2248
48, 72 , 254,368,2229
48, 73 , 260,368,2243
48, 74 , 256,370,2238
48, 75 , 287,369,2326
48, 76 , 283,372,2428
48, 77 , 283,369,2234
48, 78 , 286,372,2244
48, 79 , 270,375,2234
48, 80 , 267,368,2245
48, 81 , 266,368,2220
48, 82 , 274,368,2325
48, 83 , 290,371,2236
48, 84 , 295,368,2299
48, 85 , 267,368,2238
48, 86 , 266,369,2339
48, 87 , 256,367,2246
48, 88 , 254,369,2306
48, 89 , 288,368,2234
48, 90 , 282,368,2369
48, 91 , 384,382,2284
48, 92 , 301,368,2283
48, 93 , 284,367,2221
48, 94 , 285,369,2328
48, 95 , 283,369,2237
48, 96 , 287,369,2294
48, 97 , 283,374,2250
48, 98 , 282,373,2265
48, 99 , 255,371,2239
49, 50 , 287,370,2284
49, 51 , 288,368,2231
49, 52 , 283,367,2346
49, 53 , 254,373,2303
49, 54 , 303,372,2355
49, 55 , 258,369,2238
49, 56 , 283,367,2260
49, 57 , 284,372,2246
49, 58 , 281,368,2336
49, 59 , 260,373,2206
49, 60 , 283,371,2255
49, 61 , 282,367,2209
49, 62 , 284,370,2314
49, 63 , 283,370,2218
49, 64 , 282,370,2298
49, 65 , 284,372,2207
49, 66 , 282,367,2363
49, 67 , 283,371,2212
49, 68 , 334,389,2449
49, 69 , 283,388,2263
49, 70 , 285,368,2509
49, 71 , 280,373,2279
49, 72 , 283,369,2376
49, 73 , 284,368,2307
49, 74 , 287,367,2374
49, 75 , 283,368,2265
49, 76 , 317,383,2419
49, 77 , 303,388,2333
49, 78 , 279,393,2388
49, 79 , 283,384,2295
49, 80 , 266,369,2295
49, 81 , 260,370,2318
49, 82 , 260,369,2248
49, 83 , 260,369,2248
49, 84 , 258,369,2263
49, 85 , 283,367,2235
49, 86 , 284,373,2297
49, 87 , 284,373,2286
49, 88 , 285,368,2335
49, 89 , 288,367,2240
49, 90 , 284,374,2343
49, 91 , 283,373,2270
49, 92 , 322,385,2522
49, 93 , 259,369,2252
49, 94 , 259,369,2284
49, 95 , 260,368,2260
49, 96 , 260,369,2251
49, 97 , 265,368,2515
49, 98 , 254,368,2279
49, 99 , 261,369,2243
50, 51 , 259,369,2309
50, 52 , 259,368,2232
50, 53 , 255,368,2335
50, 54 , 253,380,2308
50, 55 , 278,380,2419
50, 56 , 255,367,2231
50, 57 , 254,370,2350
50, 58 , 255,367,2232
50, 59 , 273,369,2359
50, 60 , 295,374,2309
50, 61 , 254,371,2422
50, 62 , 253,370,2231
50, 63 , 294,386,2396
50, 64 , 281,372,2235
50, 65 , 274,383,2761
50, 66 , 300,369,2280
50, 67 , 271,370,2395
50, 68 , 302,369,2342
50, 69 , 276,369,2347
50, 70 , 342,390,2477
50, 71 , 292,370,2606
50, 72 , 311,371,2456
50, 73 , 299,371,2514
50, 74 , 276,369,2280
50, 75 , 342,388,2392
50, 76 , 274,371,2566
50, 77 , 282,375,2504
50, 78 , 291,372,2360
50, 79 , 302,373,2333
50, 80 , 300,382,2330
50, 81 , 307,389,2391
50, 82 , 300,368,2242
50, 83 , 259,374,2305
50, 84 , 290,371,2253
50, 85 , 293,372,2365
50, 86 , 304,368,2245
50, 87 , 289,368,2282
50, 88 , 288,369,2244
50, 89 , 289,369,2352
50, 90 , 289,367,2248
50, 91 , 302,367,2366
50, 92 , 259,369,2261
50, 93 , 260,369,2250
50, 94 , 263,368,2253
50, 95 , 260,368,2283
50, 96 , 260,368,2257
50, 97 , 259,369,2250
50, 98 , 260,369,2243
50, 99 , 260,369,2265
51, 52 , 263,368,2238
51, 53 , 260,369,2247
51, 54 , 260,369,2243
51, 55 , 260,369,2296
51, 56 , 260,369,2248
51, 57 , 264,369,2249
51, 58 , 263,368,2237
51, 59 , 260,368,2248
51, 60 , 261,369,2248
51, 61 , 259,369,2256
51, 62 , 260,370,2251
51, 63 , 264,368,2249
51, 64 , 264,368,2247
51, 65 , 259,368,2252
51, 66 , 259,367,2254
51, 67 , 259,369,2245
51, 68 , 260,368,2248
51, 69 , 259,369,2248
51, 70 , 263,368,2249
51, 71 , 259,367,2250
51, 72 , 260,368,2245
51, 73 , 260,369,2251
51, 74 , 259,369,2248
51, 75 , 258,367,2268
51, 76 , 260,368,2280
51, 77 , 260,368,2284
51, 78 , 260,369,2270
51, 79 , 259,372,2255
51, 80 , 264,368,2301
51, 81 , 259,368,2262
51, 82 , 259,368,2305
51, 83 , 260,374,2293
51, 84 , 260,372,2289
51, 85 , 264,368,2251
51, 86 , 260,371,2255
51, 87 , 259,369,2256
51, 88 , 261,369,2265
51, 89 , 260,368,2245
51, 90 , 265,369,2355
51, 91 , 283,368,2246
51, 92 , 299,368,2250
51, 93 , 259,369,2257
51, 94 , 288,368,2385
51, 95 , 259,367,2226
51, 96 , 259,368,2289
51, 97 , 298,368,2263
51, 98 , 260,369,2243
51, 99 , 265,369,2239
52, 53 , 258,369,2254
52, 54 , 260,374,2244
52, 55 , 259,369,2349
52, 56 , 259,373,2319
52, 57 , 263,369,2254
52, 58 , 259,368,2243
52, 59 , 259,367,2295
52, 60 , 261,368,2242
52, 61 , 259,370,2239
52, 62 , 264,368,2246
52, 63 , 263,368,2240
52, 64 , 260,368,2248
52, 65 , 260,368,2261
52, 66 , 260,369,2236
52, 67 , 261,369,2253
52, 68 , 264,368,2250
52, 69 , 260,375,2346
52, 70 , 259,368,2257
52, 71 , 259,369,2359
52, 72 , 288,368,2271
52, 73 , 260,368,2364
52, 74 , 261,368,2255
52, 75 , 272,368,2543
52, 76 , 263,369,2256
52, 77 , 288,388,2363
52, 78 , 269,368,2231
52, 79 , 259,369,2255
52, 80 , 258,368,2266
52, 81 , 260,368,2321
52, 82 , 255,369,2209
52, 83 , 271,368,2263
52, 84 , 257,367,2226
52, 85 , 264,369,2253
52, 86 , 255,367,2279
52, 87 , 254,384,2385
52, 88 , 264,368,2278
52, 89 , 273,370,2255
52, 90 , 259,368,2329
52, 91 , 282,368,2294
52, 92 , 264,368,2291
52, 93 , 254,372,2265
52, 94 , 254,367,2324
52, 95 , 269,369,2270
52, 96 , 260,368,2353
52, 97 , 260,369,2250
52, 98 , 255,367,2348
52, 99 , 260,369,2247
53, 54 , 264,368,2251
53, 55 , 264,369,2259
53, 56 , 324,369,2292
53, 57 , 270,369,2259
53, 58 , 258,368,2291
53, 59 , 253,367,2243
53, 60 , 255,368,2304
53, 61 , 254,368,2256
53, 62 , 260,372,2286
53, 63 , 263,368,2252
53, 64 , 260,374,2295
53, 65 , 253,368,2291
53, 66 , 259,369,2330
53, 67 , 286,368,2273
53, 68 , 255,368,2272
53, 69 , 271,368,2554
53, 70 , 267,368,2366
53, 71 , 254,368,2299
53, 72 , 254,369,2367
53, 73 , 259,368,2292
53, 74 , 253,367,2353
53, 75 , 272,369,2243
53, 76 , 254,368,2369
53, 77 , 260,369,2253
53, 78 , 255,367,2349
53, 79 , 255,369,2263
53, 80 , 254,368,2340
53, 81 , 261,369,2231
53, 82 , 258,370,2424
53, 83 , 267,368,2253
53, 84 , 254,369,2335
53, 85 , 258,368,2321
53, 86 , 255,368,2289
53, 87 , 255,368,2267
53, 88 , 259,368,2345
53, 89 , 264,368,2255
53, 90 , 258,384,2327
53, 91 , 254,367,2292
53, 92 , 255,369,2312
53, 93 , 255,372,2252
53, 94 , 259,369,2267
53, 95 , 260,368,2253
53, 96 , 255,367,2257
53, 97 , 255,368,2257
53, 98 , 259,369,2379
53, 99 , 258,367,2225
54, 55 , 258,397,2455
54, 56 , 255,371,2242
54, 57 , 255,374,2355
54, 58 , 260,367,2242
54, 59 , 273,369,2278
54, 60 , 268,371,2229
54, 61 , 259,368,2335
54, 62 , 260,369,2256
54, 63 , 254,370,2344
54, 64 , 259,374,2247
54, 65 , 253,374,2339
54, 66 , 254,374,2252
54, 67 , 255,368,2367
54, 68 , 254,374,2622
54, 69 , 255,370,2345
54, 70 , 255,374,2253
54, 71 , 259,369,2350
54, 72 , 264,368,2233
54, 73 , 259,367,2371
54, 74 , 255,374,2251
54, 75 , 266,368,2229
54, 76 , 268,374,2299
54, 77 , 258,368,2399
54, 78 , 255,367,2250
54, 79 , 255,372,2238
54, 80 , 259,369,2271
54, 81 , 255,368,2421
54, 82 , 256,367,2253
54, 83 , 253,370,2353
54, 84 , 259,369,2251
54, 85 , 260,368,2253
54, 86 , 263,368,2263
54, 87 , 253,369,2367
54, 88 , 271,369,2263
54, 89 , 259,368,2273
54, 90 , 264,368,2249
54, 91 , 254,370,2278
54, 92 , 254,373,2287
54, 93 , 255,373,2461
54, 94 , 259,368,2255
54, 95 , 255,374,2350
54, 96 , 254,371,2245
54, 97 , 259,369,2318
54, 98 , 257,373,2246
54, 99 , 255,367,2360
55, 56 , 265,368,2253
55, 57 , 259,368,2359
55, 58 , 259,370,2240
55, 59 , 255,369,2521
55, 60 , 254,374,2285
55, 61 , 253,368,2375
55, 62 , 253,368,2244
55, 63 , 259,367,2355
55, 64 , 254,373,2245
55, 65 , 270,369,2257
55, 66 , 258,373,2265
55, 67 , 259,369,2358
55, 68 , 256,368,2421
55, 69 , 254,371,2350
55, 70 , 259,369,2252
55, 71 , 255,372,2280
55, 72 , 254,367,2274
55, 73 , 255,368,2284
55, 74 , 254,369,2255
55, 75 , 255,372,2370
55, 76 , 284,386,2272
55, 77 , 274,386,2378
55, 78 , 258,366,2263
55, 79 , 284,372,2392
55, 80 , 271,368,2246
55, 81 , 258,369,2270
55, 82 , 283,367,2291
55, 83 , 291,367,2393
55, 84 , 284,369,2251
55, 85 , 258,373,2299
55, 86 , 301,378,2260
55, 87 , 284,373,2359
55, 88 , 283,367,2257
55, 89 , 283,376,2350
55, 90 , 285,366,2260
55, 91 , 280,368,2356
55, 92 , 284,372,2263
55, 93 , 285,370,2347
55, 94 , 284,366,2250
55, 95 , 259,369,2357
55, 96 , 284,368,2242
55, 97 , 289,369,2438
55, 98 , 284,367,2246
55, 99 , 284,374,2269
56, 57 , 282,368,2237
56, 58 , 286,369,2324
56, 59 , 283,369,2247
56, 60 , 284,366,2299
56, 61 , 294,369,2295
56, 62 , 288,368,2344
56, 63 , 285,372,2246
56, 64 , 284,371,2378
56, 65 , 284,370,2253
56, 66 , 287,368,2368
56, 67 , 283,370,2269
56, 68 , 284,370,2370
56, 69 , 416,381,2279
56, 70 , 259,372,2349
56, 71 , 283,369,2237
56, 72 , 312,371,2357
56, 73 , 285,369,2298
56, 74 , 286,369,2237
56, 75 , 285,374,2251
56, 76 , 315,370,2351
56, 77 , 283,374,2262
56, 78 , 284,371,2357
56, 79 , 284,368,2413
56, 80 , 314,383,2418
56, 81 , 262,369,2314
56, 82 , 259,370,2262
56, 83 , 263,369,2265
56, 84 , 258,369,2257
56, 85 , 260,370,2423
56, 86 , 284,372,2258
56, 87 , 288,368,2335
56, 88 , 284,369,2257
56, 89 , 321,383,2396
56, 90 , 323,382,2297
56, 91 , 260,373,2382
56, 92 , 311,388,2248
56, 93 , 288,373,2353
56, 94 , 283,371,2260
56, 95 , 283,368,2363
56, 96 , 283,369,2242
56, 97 , 287,369,2538
56, 98 , 284,372,2231
56, 99 , 282,368,2339
57, 58 , 289,369,2267
57, 59 , 340,383,2352
57, 60 , 313,386,2333
57, 61 , 287,373,2341
57, 62 , 259,367,2246
57, 63 , 298,368,2355
57, 64 , 282,368,2236
57, 65 , 288,368,2360
57, 66 , 282,371,2282
57, 67 , 281,367,2392
57, 68 , 287,368,2240
57, 69 , 288,371,2375
57, 70 , 284,369,2604
57, 71 , 283,382,2359
57, 72 , 283,371,2249
57, 73 , 284,370,2360
57, 74 , 289,369,2257
57, 75 , 298,369,2318
57, 76 , 284,370,2244
57, 77 , 282,368,2349
57, 78 , 301,368,2249
57, 79 , 284,367,2358
57, 80 , 283,373,2295
57, 81 , 283,370,2456
57, 82 , 291,374,2248
57, 83 , 285,369,2334
57, 84 , 283,368,2240
57, 85 , 286,369,2345
57, 86 , 313,382,2281
57, 87 , 299,371,2367
57, 88 , 291,369,2269
57, 89 , 296,373,2361
57, 90 , 286,370,2265
57, 91 , 284,374,2367
57, 92 , 264,369,2309
57, 93 , 284,367,2346
57, 94 , 284,370,2246
57, 95 , 282,373,2431
57, 96 , 298,373,2306
57, 97 , 285,371,2378
57, 98 , 293,381,2243
57, 99 , 300,368,2472
58, 59 , 309,375,2272
58, 60 , 260,370,2330
58, 61 , 336,369,2240
58, 62 , 279,371,2270
58, 63 , 284,371,2253
58, 64 , 283,367,2354
58, 65 , 264,368,2250
58, 66 , 284,371,2311
58, 67 , 284,374,2245
58, 68 , 283,370,2348
58, 69 , 287,372,2253
58, 70 , 325,367,2457
58, 71 , 283,373,2251
58, 72 , 304,373,2360
58, 73 , 283,373,2246
58, 74 , 282,376,2373
58, 75 , 283,371,2249
58, 76 , 287,371,2367
58, 77 , 284,368,2274
58, 78 , 298,369,2236
58, 79 , 260,369,2232
58, 80 , 299,369,2362
58, 81 , 284,369,2240
58, 82 , 283,387,2484
58, 83 , 287,367,2263
58, 84 , 284,375,2431
58, 85 , 262,369,2263
58, 86 , 260,375,2311
58, 87 , 297,368,2259
58, 88 , 260,368,2263
58, 89 , 259,367,2297
58, 90 , 260,369,2255
58, 91 , 261,368,2251
58, 92 , 264,368,2286
58, 93 , 255,374,2248
58, 94 , 255,371,2287
58, 95 , 255,370,2238
58, 96 , 255,373,2311
58, 97 , 257,386,2287
58, 98 , 255,373,2420
58, 99 , 284,368,2225
59, 60 , 255,372,2318
59, 61 , 257,374,2251
59, 62 , 285,369,2368
59, 63 , 283,371,2245
59, 64 , 285,375,2384
59, 65 , 276,367,2204
59, 66 , 282,370,2370
59, 67 , 284,368,2254
59, 68 , 295,377,2325
59, 69 , 291,372,2292
59, 70 , 284,367,2359
59, 71 , 291,370,2211
59, 72 , 314,368,2335
59, 73 , 297,368,2253
59, 74 , 283,366,2396
59, 75 , 253,372,2249
59, 76 , 346,400,2346
59, 77 , 298,367,2276
59, 78 , 282,374,2307
59, 79 , 300,368,2247
59, 80 , 278,370,2269
59, 81 , 357,367,2264
59, 82 , 283,372,2316
59, 83 , 287,367,2237
59, 84 , 264,369,2257
59, 85 , 259,368,2263
59, 86 , 259,369,2265
59, 87 , 260,369,2264
59, 88 , 259,368,2267
59, 89 , 264,369,2262
59, 90 , 261,368,2258
59, 91 , 258,369,2255
59, 92 , 259,369,2298
59, 93 , 259,368,2264
59, 94 , 259,375,2265
59, 95 , 265,368,2259
59, 96 , 259,369,2264
59, 97 , 260,369,2262
59, 98 , 260,368,2240
59, 99 , 260,369,2231
60, 61 , 259,368,2340
60, 62 , 264,369,2243
60, 63 , 259,373,2255
60, 64 , 260,369,2260
60, 65 , 260,368,2252
60, 66 , 260,369,2254
60, 67 , 264,368,2239
60, 68 , 263,368,2255
60, 69 , 260,368,2253
60, 70 , 259,368,2252
60, 71 , 259,369,2266
60, 72 , 260,369,2259
60, 73 , 258,370,2259
60, 74 , 264,368,2260
60, 75 , 259,369,2254
60, 76 , 259,369,2252
60, 77 , 260,370,2276
60, 78 , 259,369,2247
60, 79 , 259,370,2264
60, 80 , 263,368,2266
60, 81 , 261,368,2248
60, 82 , 259,368,2266
60, 83 , 259,369,2261
60, 84 , 260,368,2252
60, 85 , 259,368,2263
60, 86 , 265,368,2288
60, 87 , 260,369,2264
60, 88 , 260,367,2253
60, 89 , 259,369,2265
60, 90 , 259,369,2254
60, 91 , 260,372,2258
60, 92 , 262,368,2288
60, 93 , 259,368,2267
60, 94 , 260,368,2257
60, 95 , 260,368,2255
60, 96 , 291,369,2252
60, 97 , 260,369,2255
60, 98 , 263,367,2244
60, 99 , 259,369,2240
61, 62 , 259,368,2282
61, 63 , 260,368,2252
61, 64 , 261,369,2253
61, 65 , 259,373,2245
61, 66 , 263,368,2255
61, 67 , 260,368,2259
61, 68 , 260,368,2252
61, 69 , 259,369,2248
61, 70 , 259,369,2258
61, 71 , 260,368,2257
61, 72 , 264,368,2287
61, 73 , 260,369,2263
61, 74 , 260,368,2260
61, 75 , 260,369,2251
61, 76 , 258,368,2251
61, 77 , 263,369,2285
61, 78 , 265,369,2257
61, 79 , 260,368,2263
61, 80 , 259,368,2258
61, 81 , 258,369,2263
61, 82 , 259,368,2264
61, 83 , 260,367,2264
61, 84 , 262,368,2259
61, 85 , 260,368,2268
61, 86 , 260,368,2255
61, 87 , 259,369,2261
61, 88 , 260,369,2264
61, 89 , 259,369,2256
61, 90 , 263,369,2266
61, 91 , 312,374,2262
61, 92 , 258,368,2262
61, 93 , 259,368,2266
61, 94 , 259,373,2252
61, 95 , 264,368,2258
61, 96 , 263,368,2253
61, 97 , 259,367,2254
61, 98 , 258,368,2252
61, 99 , 259,369,2235
62, 63 , 259,368,2256
62, 64 , 260,368,2266
62, 65 , 264,368,2252
62, 66 , 260,368,2263
62, 67 , 260,368,2252
62, 68 , 259,368,2251
62, 69 , 259,368,2259
62, 70 , 264,368,2260
62, 71 , 263,368,2271
62, 72 , 259,368,2265
62, 73 , 259,369,2258
62, 74 , 259,368,2260
62, 75 , 263,369,2263
62, 76 , 261,368,2257
62, 77 , 263,369,2256
62, 78 , 258,368,2253
62, 79 , 259,368,2262
62, 80 , 261,369,2258
62, 81 , 259,368,2259
62, 82 , 260,369,2319
62, 83 , 260,375,2267
62, 84 , 260,369,2265
62, 85 , 260,368,2263
62, 86 , 259,369,2265
62, 87 , 265,369,2273
62, 88 , 261,371,2260
62, 89 , 260,367,2267
62, 90 , 259,369,2295
62, 91 , 259,369,2255
62, 92 , 259,368,2261
62, 93 , 263,368,2260
62, 94 , 260,369,2253
62, 95 , 259,369,2259
62, 96 , 260,368,2258
62, 97 , 259,368,2267
62, 98 , 258,372,2251
62, 99 , 264,369,2246
63, 64 , 259,368,2257
63, 65 , 260,368,2254
63, 66 , 260,368,2258
63, 67 , 259,368,2244
63, 68 , 259,369,2268
63, 69 , 262,368,2253
63, 70 , 259,368,2255
63, 71 , 260,369,2255
63, 72 , 259,367,2261
63, 73 , 260,368,2257
63, 74 , 260,370,2267
63, 75 , 263,367,2261
63, 76 , 259,368,2269
63, 77 , 260,368,2255
63, 78 , 260,369,2284
63, 79 , 263,369,2263
63, 80 , 264,368,2254
63, 81 , 263,368,2258
63, 82 , 260,369,2266
63, 83 , 260,367,2260
63, 84 , 259,368,2259
63, 85 , 258,368,2270
63, 86 , 259,368,2256
63, 87 , 265,369,2257
63, 88 , 260,367,2295
63, 89 , 259,369,2276
63, 90 , 259,369,2255
63, 91 , 259,368,2257
63, 92 , 286,367,2282
63, 93 , 260,371,2264
63, 94 , 260,369,2315
63, 95 , 260,370,2263
63, 96 , 259,369,2252
63, 97 , 260,369,2258
63, 98 , 259,369,2251
63, 99 , 258,368,2238
64, 65 , 260,367,2261
64, 66 , 259,368,2251
64, 67 , 258,369,2263
64, 68 , 260,368,2256
64, 69 , 300,370,2253
64, 70 , 259,367,2262
64, 71 , 285,368,2386
64, 72 , 259,369,2254
64, 73 , 286,367,2398
64, 74 , 260,369,2248
64, 75 , 298,368,2250
64, 76 , 260,372,2262
64, 77 , 259,368,2343
64, 78 , 254,374,2251
64, 79 , 259,368,2301
64, 80 , 267,368,2235
64, 81 , 259,370,2287
64, 82 , 288,373,2303
64, 83 , 260,368,2300
64, 84 , 284,368,2309
64, 85 , 277,369,2259
64, 86 , 260,369,2266
64, 87 , 264,369,2264
64, 88 , 260,374,2285
64, 89 , 330,368,2364
64, 90 , 295,368,2269
64, 91 , 296,382,2362
64, 92 , 261,369,2292
64, 93 , 260,368,2260
64, 94 , 260,369,2324
64, 95 , 263,369,2301
64, 96 , 260,369,2263
64, 97 , 259,369,2265
64, 98 , 259,368,2244
64, 99 , 259,368,2233
65, 66 , 261,369,2254
65, 67 , 323,368,2253
65, 68 , 260,367,2250
65, 69 , 260,368,2288
65, 70 , 260,369,2256
65, 71 , 260,368,2250
65, 72 , 264,367,2248
65, 73 , 260,368,2270
65, 74 , 259,369,2255
65, 75 , 284,372,2350
65, 76 , 297,373,2269
65, 77 , 286,367,2261
65, 78 , 259,367,2264
65, 79 , 260,368,2425
65, 80 , 260,368,2263
65, 81 , 264,368,2362
65, 82 , 256,375,2344
65, 83 , 270,369,2299
65, 84 , 300,371,2306
65, 85 , 301,369,2343
65, 86 , 264,369,2442
65, 87 , 297,377,2396
65, 88 , 303,377,2411
65, 89 , 275,372,2296
65, 90 , 291,373,2515
65, 91 , 313,370,2281
65, 92 , 271,370,2335
65, 93 , 276,373,2307
65, 94 , 271,368,2526
65, 95 , 298,374,2431
65, 96 , 261,370,2321
65, 97 , 314,371,2448
65, 98 , 313,370,2395
65, 99 , 280,369,2310
66, 67 , 261,375,2335
66, 68 , 260,375,2244
66, 69 , 290,367,2280
66, 70 , 260,368,2278
66, 71 , 259,368,2286
66, 72 , 259,368,2290
66, 73 , 260,369,2258
66, 74 , 264,369,2262
66, 75 , 290,375,2289
66, 76 , 288,374,2315
66, 77 , 289,375,2290
66, 78 , 294,369,2391
66, 79 , 302,373,2346
66, 80 , 285,373,2387
66, 81 , 306,372,2286
66, 82 , 288,371,2376
66, 83 , 302,368,2286
66, 84 , 305,368,2396
66, 85 , 289,372,2296
66, 86 , 288,368,2373
66, 87 , 292,372,2262
66, 88 , 289,368,2396
66, 89 , 259,368,2261
66, 90 , 304,372,2362
66, 91 , 292,368,2272
66, 92 , 287,368,2387
66, 93 , 289,369,2257
66, 94 , 259,374,2532
66, 95 , 284,368,2260
66, 96 , 286,369,2365
66, 97 , 292,368,2287
66, 98 , 260,368,2362
66, 99 , 260,376,2265
67, 68 , 259,368,2240
67, 69 , 259,369,2258
67, 70 , 264,368,2243
67, 71 , 262,369,2248
67, 72 , 259,369,2259
67, 73 , 259,368,2293
67, 74 , 259,368,2248
67, 75 , 259,369,2277
67, 76 , 297,369,2309
67, 77 , 261,369,2257
67, 78 , 283,368,2263
67, 79 , 260,369,2258
67, 80 , 260,369,2255
67, 81 , 265,368,2250
67, 82 , 290,368,2251
67, 83 , 259,368,2257
67, 84 , 260,373,2256
67, 85 , 260,368,2254
67, 86 , 260,368,2265
67, 87 , 263,368,2267
67, 88 , 260,369,2255
67, 89 , 260,368,2263
67, 90 , 273,372,2408
67, 91 , 260,370,2259
67, 92 , 288,374,2482
67, 93 , 298,389,2257
67, 94 , 282,369,2318
67, 95 , 285,368,2246
67, 96 , 283,368,2360
67, 97 , 284,369,2242
67, 98 , 282,375,2347
67, 99 , 283,368,2218
68, 69 , 282,373,2360
68, 70 , 295,373,2238
68, 71 , 283,369,2379
68, 72 , 283,370,2237
68, 73 , 283,371,2314
68, 74 , 284,371,2231
68, 75 , 298,373,2478
68, 76 , 284,370,2249
68, 77 , 286,369,2412
68, 78 , 282,372,2334
68, 79 , 285,374,2328
68, 80 , 259,373,2227
68, 81 , 282,367,2351
68, 82 , 255,370,2247
68, 83 , 258,371,2384
68, 84 , 283,372,2256
68, 85 , 322,370,2366
68, 86 , 314,373,2265
68, 87 , 311,379,2477
68, 88 , 283,368,2252
68, 89 , 287,373,2507
68, 90 , 282,373,2257
68, 91 , 284,371,2343
68, 92 , 287,367,2251
68, 93 , 283,367,2361
68, 94 , 333,368,2298
68, 95 , 316,388,2437
68, 96 , 298,372,2274
68, 97 , 283,382,2365
68, 98 , 283,373,2283
68, 99 , 259,380,2408
69, 70 , 283,372,2204
69, 71 , 286,367,2415
69, 72 , 286,368,2243
69, 73 , 283,369,2323
69, 74 , 282,375,2243
69, 75 , 285,370,2373
69, 76 , 318,385,2243
69, 77 , 256,369,2349
69, 78 , 301,371,2259
69, 79 , 317,367,2367
69, 80 , 284,367,2219
69, 81 , 284,373,2263
69, 82 , 298,373,2249
69, 83 , 285,375,2394
69, 84 , 282,369,2248
69, 85 , 284,367,2338
69, 86 , 282,368,2339
69, 87 , 301,367,2379
69, 88 , 283,368,2243
69, 89 , 283,370,2355
69, 90 , 299,368,2243
69, 91 , 283,368,2387
69, 92 , 334,369,2246
69, 93 , 283,371,2361
69, 94 , 327,383,2254
69, 95 , 255,370,2402
69, 96 , 283,371,2289
69, 97 , 277,368,2358
69, 98 , 282,367,2241
69, 99 , 255,374,2409
70, 71 , 303,368,2239
70, 72 , 310,370,2369
70, 73 , 313,374,2560
70, 74 , 287,368,2370
70, 75 , 280,367,2312
70, 76 , 255,369,2348
70, 77 , 288,368,2216
70, 78 , 306,372,2318
70, 79 , 285,376,2226
70, 80 , 284,370,2333
70, 81 , 287,370,2218
70, 82 , 287,372,2364
70, 83 , 285,370,2302
70, 84 , 283,368,2392
70, 85 , 347,369,2327
70, 86 , 284,375,2466
70, 87 , 259,371,2240
70, 88 , 250,367,2367
70, 89 , 283,372,2275
70, 90 , 284,368,2355
70, 91 , 287,367,2213
70, 92 , 288,372,2327
70, 93 , 322,382,2321
70, 94 , 254,368,2321
70, 95 , 259,370,2310
70, 96 , 284,374,2380
70, 97 , 298,374,2390
70, 98 , 257,368,2351
70, 99 , 254,370,2228
71, 72 , 282,370,2362
71, 73 , 300,368,2256
71, 74 , 287,367,2393
71, 75 , 283,369,2217
71, 76 , 285,369,2338
71, 77 , 283,368,2289
71, 78 , 303,373,2321
71, 79 , 283,374,2218
71, 80 , 282,371,2345
71, 81 , 287,367,2252
71, 82 , 320,371,2350
71, 83 , 327,368,2248
71, 84 , 258,370,2257
71, 85 , 259,368,2253
71, 86 , 264,369,2259
71, 87 , 259,367,2263
71, 88 , 260,367,2258
71, 89 , 258,369,2260
71, 90 , 259,374,2258
71, 91 , 259,369,2248
71, 92 , 262,369,2263
71, 93 , 259,369,2257
71, 94 , 259,368,2262
71, 95 , 260,368,2254
71, 96 , 260,368,2255
71, 97 , 259,369,2255
71, 98 , 263,368,2348
71, 99 , 283,368,2308
72, 73 , 271,374,2366
72, 74 , 263,369,2246
72, 75 , 264,367,2287
72, 76 , 260,369,2265
72, 77 , 259,369,2264
72, 78 , 298,375,2248
72, 79 , 258,368,2301
72, 80 , 259,369,2269
72, 81 , 298,366,2246
72, 82 , 284,373,2276
72, 83 , 285,369,2350
72, 84 , 261,368,2238
72, 85 , 263,369,2343
72, 86 , 284,384,2402
72, 87 , 312,373,2335
72, 88 , 263,368,2266
72, 89 , 259,367,2333
72, 90 , 279,374,2246
72, 91 , 260,369,2347
72, 92 , 264,368,2265
72, 93 , 261,368,2350
72, 94 , 295,367,2254
72, 95 , 259,369,2259
72, 96 , 283,371,2292
72, 97 , 264,368,2288
72, 98 , 260,369,2244
72, 99 , 260,368,2238
73, 74 , 259,369,2241
73, 75 , 259,368,2337
73, 76 , 265,368,2256
73, 77 , 263,369,2431
73, 78 , 260,368,2247
73, 79 , 259,368,2260
73, 80 , 284,371,2386
73, 81 , 263,369,2252
73, 82 , 260,367,2258
73, 83 , 259,368,2260
73, 84 , 260,367,2248
73, 85 , 259,369,2268
73, 86 , 264,369,2259
73, 87 , 283,371,2254
73, 88 , 260,368,2246
73, 89 , 259,369,2507
73, 90 , 265,368,2266
73, 91 , 258,368,2253
73, 92 , 260,368,2284
73, 93 , 260,368,2290
73, 94 , 260,369,2253
73, 95 , 259,372,2256
73, 96 , 262,368,2257
73, 97 , 260,368,2264
73, 98 , 259,368,2248
73, 99 , 259,369,2232
74, 75 , 259,369,2255
74, 76 , 258,369,2237
74, 77 , 264,369,2254
74, 78 , 260,368,2257
74, 79 , 259,369,2249
74, 80 , 259,369,2290
74, 81 , 260,369,2244
74, 82 , 259,368,2248
74, 83 , 295,368,2247
74, 84 , 289,371,2278
74, 85 , 258,368,2260
74, 86 , 260,369,2248
74, 87 , 259,370,2255
74, 88 , 264,367,2256
74, 89 , 269,368,2235
74, 90 , 260,369,2255
74, 91 , 260,370,2258
74, 92 , 259,369,2266
74, 93 , 259,369,2258
74, 94 , 260,369,2262
74, 95 , 264,369,2256
74, 96 , 260,368,2328
74, 97 , 260,367,2264
74, 98 , 261,368,2245
74, 99 , 260,369,2240
75, 76 , 263,368,2246
75, 77 , 263,368,2275
75, 78 , 289,385,2385
75, 79 , 260,369,2257
75, 80 , 260,369,2252
75, 81 , 264,368,2246
75, 82 , 261,368,2249
75, 83 , 259,369,2290
75, 84 , 258,368,2286
75, 85 , 261,369,2279
75, 86 , 259,369,2260
75, 87 , 265,367,2260
75, 88 , 260,368,2282
75, 89 , 259,368,2257
75, 90 , 258,368,2252
75, 91 , 260,368,2258
75, 92 , 259,368,2262
75, 93 , 264,369,2260
75, 94 , 259,368,2255
75, 95 , 259,370,2326
75, 96 , 261,369,2290
75, 97 , 260,368,2254
75, 98 , 264,368,2243
75, 99 , 264,368,2239
76, 77 , 261,368,2253
76, 78 , 259,368,2257
76, 79 , 259,368,2263
76, 80 , 260,369,2249
76, 81 , 258,369,2253
76, 82 , 262,369,2257
76, 83 , 259,368,2262
76, 84 , 259,374,2247
76, 85 , 259,369,2251
76, 86 , 259,368,2256
76, 87 , 260,368,2250
76, 88 , 263,367,2257
76, 89 , 261,369,2268
76, 90 , 259,368,2259
76, 91 , 260,368,2286
76, 92 , 259,368,2268
76, 93 , 260,372,2326
76, 94 , 263,369,2250
76, 95 , 260,368,2263
76, 96 , 259,368,2259
76, 97 , 271,369,2284
76, 98 , 259,368,2254
76, 99 , 265,368,2239
77, 78 , 265,368,2250
77, 79 , 258,368,2289
77, 80 , 260,368,2243
77, 81 , 260,369,2252
77, 82 , 259,368,2256
77, 83 , 261,367,2254
77, 84 , 264,368,2291
77, 85 , 259,370,2280
77, 86 , 259,368,2267
77, 87 , 259,368,2312
77, 88 , 259,369,2271
77, 89 , 265,367,2250
77, 90 , 259,369,2259
77, 91 , 260,368,2260
77, 92 , 259,369,2257
77, 93 , 260,369,2365
77, 94 , 263,368,2270
77, 95 , 263,368,2267
77, 96 , 260,368,2267
77, 97 , 259,369,2258
77, 98 , 258,369,2251
77, 99 , 260,369,2242
78, 79 , 264,368,2262
78, 80 , 262,368,2328
78, 81 , 260,368,2256
78, 82 , 260,369,2257
78, 83 , 259,368,2263
78, 84 , 259,368,2262
78, 85 , 264,367,2253
78, 86 , 259,369,2260
78, 87 , 259,369,2261
78, 88 , 259,368,2287
78, 89 , 258,368,2267
78, 90 , 259,368,2263
78, 91 , 263,368,2264
78, 92 , 260,369,2329
78, 93 , 259,368,2262
78, 94 , 260,369,2251
78, 95 , 260,369,2255
78, 96 , 264,368,2255
78, 97 , 264,369,2257
78, 98 , 260,368,2249
78, 99 , 259,369,2233
79, 80 , 258,370,2382
79, 81 , 259,384,2289
79, 82 , 284,368,2375
79, 83 , 261,367,2287
79, 84 , 260,368,2258
79, 85 , 259,368,2256
79, 86 , 264,368,2255
79, 87 , 264,368,2248
79, 88 , 260,368,2283
79, 89 , 259,368,2342
79, 90 , 261,371,2302
79, 91 , 281,368,2284
79, 92 , 302,372,2530
79, 93 , 303,388,2336
79, 94 , 299,370,2353
79, 95 , 261,369,2353
79, 96 , 260,369,2345
79, 97 , 261,369,2261
79, 98 , 294,374,2272
79, 99 , 290,368,2254
80, 81 , 291,369,2276
80, 82 , 289,369,2269
80, 83 , 264,369,2280
80, 84 , 259,369,2311
80, 85 , 260,368,2289
80, 86 , 259,370,2257
80, 87 , 288,369,2252
80, 88 , 294,368,2255
80, 89 , 259,368,2253
80, 90 , 259,368,2301
80, 91 , 259,369,2262
80, 92 , 259,368,2291
80, 93 , 263,369,2287
80, 94 , 260,369,2290
80, 95 , 260,370,2267
80, 96 , 259,368,2270
80, 97 , 260,368,2283
80, 98 , 293,367,2261
80, 99 , 289,368,2266
81, 82 , 289,368,2268
81, 83 , 288,369,2255
81, 84 , 259,370,2279
81, 85 , 265,368,2327
81, 86 , 260,370,2273
81, 87 , 289,368,2252
81, 88 , 289,369,2254
81, 89 , 289,368,2300
81, 90 , 263,367,2294
81, 91 , 261,367,2394
81, 92 , 260,370,2269
81, 93 , 260,368,2285
81, 94 , 259,368,2296
81, 95 , 260,373,2329
81, 96 , 302,368,2258
81, 97 , 260,368,2262
81, 98 , 259,369,2255
81, 99 , 260,368,2236
82, 83 , 264,368,2254
82, 84 , 260,368,2256
82, 85 , 260,368,2257
82, 86 , 260,368,2265
82, 87 , 258,368,2255
82, 88 , 260,368,2259
82, 89 , 263,368,2283
82, 90 , 260,369,2270
82, 91 , 260,369,2263
82, 92 , 259,370,2255
82, 93 , 259,369,2260
82, 94 , 261,368,2264
82, 95 , 264,368,2255
82, 96 , 260,368,2262
82, 97 , 260,368,2261
82, 98 , 260,369,2251
82, 99 , 259,370,2256
83, 84 , 259,368,2259
83, 85 , 263,368,2286
83, 86 , 259,368,2257
83, 87 , 259,368,2261
83, 88 , 260,368,2255
83, 89 , 259,369,2268
83, 90 , 264,367,2252
83, 91 , 263,369,2264
83, 92 , 259,368,2250
83, 93 , 260,368,2256
83, 94 , 259,368,2256
83, 95 , 259,369,2254
83, 96 , 269,373,2254
83, 97 , 262,369,2266
83, 98 , 261,368,2261
83, 99 , 260,369,2250
84, 85 , 259,369,2249
84, 86 , 259,368,2253
84, 87 , 259,368,2256
84, 88 , 321,374,2250
84, 89 , 260,368,2297
84, 90 , 260,368,2284
84, 91 , 260,369,2252
84, 92 , 260,369,2286
84, 93 , 260,369,2262
84, 94 , 259,368,2257
84, 95 , 259,368,2255
84, 96 , 259,367,2276
84, 97 , 259,369,2256
84, 98 , 260,369,2261
84, 99 , 263,369,2246
85, 86 , 259,368,2258
85, 87 , 259,368,2263
85, 88 , 260,368,2265
85, 89 , 259,369,2253
85, 90 , 258,372,2245
85, 91 , 264,369,2255
85, 92 , 252,369,2284
85, 93 , 260,369,2266
85, 94 , 259,368,2267
85, 95 , 259,370,2267
85, 96 , 260,370,2258
85, 97 , 263,368,2266
85, 98 , 259,368,2267
85, 99 , 259,368,2255
86, 87 , 260,373,2258
86, 88 , 259,369,2255
86, 89 , 261,368,2252
86, 90 , 263,369,2265
86, 91 , 260,369,2377
86, 92 , 260,368,2286
86, 93 , 259,368,2260
86, 94 , 259,369,2262
86, 95 , 264,368,2258
86, 96 , 263,367,2253
86, 97 , 289,367,2294
86, 98 , 259,369,2291
86, 99 , 259,369,2248
87, 88 , 259,372,2261
87, 89 , 264,369,2254
87, 90 , 260,368,2252
87, 91 , 259,368,2258
87, 92 , 259,369,2261
87, 93 , 260,369,2260
87, 94 , 263,370,2259
87, 95 , 293,368,2262
87, 96 , 260,369,2264
87, 97 , 259,368,2260
87, 98 , 259,369,2268
87, 99 , 258,369,2257
88, 89 , 264,368,2262
88, 90 , 259,367,2264
88, 91 , 259,368,2261
88, 92 , 258,368,2276
88, 93 , 259,369,2271
88, 94 , 266,369,2262
88, 95 , 263,368,2256
88, 96 , 262,372,2291
88, 97 , 260,368,2292
88, 98 , 260,368,2271
88, 99 , 260,369,2256
89, 90 , 263,369,2273
89, 91 , 259,368,2294
89, 92 , 261,370,2265
89, 93 , 260,369,2264
89, 94 , 258,373,2261
89, 95 , 263,368,2259
89, 96 , 259,369,2259
89, 97 , 260,368,2270
89, 98 , 259,368,2254
89, 99 , 258,369,2255
90, 91 , 259,371,2260
90, 92 , 265,368,2254
90, 93 , 258,368,2254
90, 94 , 259,367,2263
90, 95 , 259,369,2266
90, 96 , 260,368,2255
90, 97 , 259,369,2271
90, 98 , 262,368,2261
90, 99 , 290,368,2262
91, 92 , 259,368,2319
91, 93 , 260,369,2261
91, 94 , 260,368,2256
91, 95 , 265,368,2260
91, 96 , 260,368,2257
91, 97 , 259,369,2261
91, 98 , 260,369,2296
91, 99 , 258,369,2260
92, 93 , 263,368,2271
92, 94 , 262,367,2257
92, 95 , 259,374,2286
92, 96 , 260,368,2287
92, 97 , 259,368,2259
92, 98 , 262,369,2264
92, 99 , 262,368,2270
93, 94 , 259,368,2257
93, 95 , 259,369,2322
93, 96 , 259,369,2265
93, 97 , 259,368,2291
93, 98 , 264,368,2261
93, 99 , 259,368,2261
94, 95 , 259,368,2258
94, 96 , 260,369,2262
94, 97 , 259,369,2260
94, 98 , 259,368,2264
94, 99 , 263,369,2266
95, 96 , 259,369,2257
95, 97 , 259,368,2265
95, 98 , 259,370,2261
95, 99 , 259,368,2258
96, 97 , 259,372,2273
96, 98 , 263,368,2267
96, 99 , 259,368,2265
97, 98 , 259,369,2260
97, 99 , 259,368,2268
98, 99 , 259,369,2254
